FILE CREATED: Wed, Jun 27, 2007 
NSORT-ed   Jun07018.ABS 	  +  Jun07020.ABS	  + none
normalized to   Jun07020.ABS
multiplicative factor 1-2 =   0.90945079	 multiplicative factor 2-3 =            1
The 6 columns are | Q (1/A) | I(Q) (1/cm) | std. dev. I(Q) (1/cm) | sigmaQ | meanQ | ShadowFactor|
       0.002224            1562           81.56       0.0005223        0.002283          0.9972
       0.002567           886.1           43.18       0.0005246        0.002617               1
       0.002909           530.9            22.8       0.0005271        0.002953               1
       0.003251           346.7           11.87       0.0005304        0.003291               1
       0.003593             241           8.012       0.0005342        0.003629               1
       0.003936             177           5.453       0.0005386        0.003968               1
       0.004278           135.1           4.338       0.0005434        0.004308               1
        0.00462           102.5           3.196       0.0005487        0.004648               1
       0.004962           78.17           2.499       0.0005544        0.004988               1
       0.005304           60.61           1.975       0.0005605        0.005329               1
       0.005647           51.13           1.664        0.000567        0.005669               1
       0.005989           42.61           1.489       0.0005738         0.00601               1
       0.006331           34.87           1.248       0.0005809        0.006351               1
       0.006673           28.17           1.174       0.0005884        0.006692               1
       0.007015           25.33          0.8303       0.0005962        0.007034               1
       0.007358           23.04          0.9804       0.0006042        0.007375               1
         0.0077           18.64          0.8132       0.0006126        0.007717               1
       0.008042           16.64          0.7013       0.0006212        0.008058               1
       0.008384           14.41          0.6565         0.00063          0.0084               1
       0.008726           12.37          0.5473       0.0006391        0.008741               1
       0.009069           11.37          0.6002       0.0006485        0.009083               1
       0.009411            9.64           0.422        0.000658        0.009424               1
       0.009753           8.943          0.5439       0.0006678        0.009766               1
         0.0101           8.633          0.4221       0.0006778         0.01011               1
        0.01044           6.681          0.4246        0.000688         0.01045               1
        0.01078           7.059          0.4442       0.0006983         0.01079               1
        0.01112           5.978          0.3468       0.0007088         0.01113               1
        0.01146           5.171          0.3458       0.0007196         0.01148               1
        0.01181           5.111          0.3431       0.0007304         0.01182               1
        0.01215           4.164          0.2938       0.0007414         0.01216               1
        0.01249           4.123           0.301       0.0007526          0.0125               1
        0.01283           4.074          0.2722       0.0007639         0.01284               1
        0.01317           3.436          0.2868       0.0007753         0.01318               1
        0.01352           3.314          0.2838       0.0007869         0.01353               1
        0.01386           3.098          0.2497       0.0007986         0.01387               1
         0.0142           2.793          0.2427       0.0008104         0.01421               1
        0.01454           2.487          0.2345       0.0008223         0.01455               1
        0.01489           2.738          0.2296       0.0008344         0.01489               1
        0.01523           2.516          0.2245       0.0008465         0.01524               1
        0.01557           2.377          0.2375       0.0008587         0.01558               1
        0.01591           2.425          0.2271       0.0008711         0.01592               1
        0.01625               2          0.2056       0.0008835         0.01626               1
         0.0166           1.835          0.1858        0.000896          0.0166               1
        0.01694           1.724          0.1578       0.0009086         0.01695               1
        0.01728           1.421          0.1812       0.0009212         0.01729               1
        0.01762           1.622          0.1941        0.000934         0.01763               1
        0.01796           1.369          0.1791       0.0009468         0.01797               1
        0.01831           1.364          0.1809       0.0009597         0.01831               1
        0.01865           1.251           0.175       0.0009726         0.01866               1
        0.01899           1.227          0.1566       0.0009856           0.019               1
        0.01933           1.147          0.1638       0.0009987         0.01934               1
        0.01968           1.055           0.165        0.001012         0.01968               1
        0.02002           1.194          0.1655        0.001025         0.02002               1
        0.02036           1.153          0.1607        0.001038         0.02037               1
         0.0207          0.9513          0.1715        0.001052         0.02071               1
        0.02104           1.018          0.1525        0.001065         0.02105               1
        0.02139          0.9831           0.174        0.001078         0.02139               1
        0.02173          0.5714          0.1564        0.001092         0.02173               1
        0.02207          0.8328          0.1468        0.001105         0.02208               1
        0.02241          0.8679          0.1859        0.001119         0.02242               1
        0.02275          0.7385          0.1491        0.001132         0.02276               1
         0.0231          0.8651          0.1824        0.001146          0.0231               1
        0.02344           0.859          0.1681         0.00116         0.02344               1
        0.02378          0.7274          0.1451        0.001173         0.02379               1
        0.02412           0.587          0.1428        0.001187         0.02413               1
        0.02446          0.7277          0.1602        0.001201         0.02447               1
        0.02481          0.8314          0.1486        0.001215         0.02481               1
        0.02515            0.63          0.2087        0.001229         0.02515               1
        0.02549          0.8324          0.1521        0.001242         0.02549               1
        0.02583          0.5228          0.1667        0.001256         0.02584               1
        0.02617          0.6771          0.1593         0.00127         0.02618               1
        0.02652          0.4904          0.1357        0.001284         0.02652               1
        0.02686          0.8269          0.1637        0.001298         0.02686               1
         0.0272          0.7472          0.1795        0.001312          0.0272               1
        0.02754           0.701          0.1612        0.001326         0.02755               1
        0.02788          0.5527           0.169         0.00134         0.02789               1
        0.02804          0.6343        0.009669        0.004752         0.02841               1
        0.02823          0.4383          0.1539        0.001355         0.02823               1
        0.02857          0.3848          0.1557        0.001369         0.02857               1
        0.02891          0.5976          0.1654        0.001383         0.02891               1
        0.02925          0.3004          0.1349        0.001397         0.02926               1
        0.02959          0.4284          0.1532        0.001411          0.0296               1
        0.02994          0.4941           0.159        0.001425         0.02994               1
        0.03028          0.4268          0.1533         0.00144         0.03028               1
        0.03062          0.6454          0.1517        0.001454         0.03062               1
        0.03096          0.5532          0.1483        0.001468         0.03097               1
         0.0313           0.432          0.1536        0.001482         0.03131               1
        0.03164          0.7889          0.1782        0.001497         0.03165               1
        0.03178          0.5429        0.008098        0.004792         0.03211               1
        0.03199            0.29          0.1599        0.001511         0.03199               1
        0.03233          0.5685           0.169        0.001525         0.03233               1
        0.03267          0.3226           0.166         0.00154         0.03267               1
        0.03301          0.3707          0.1612        0.001554         0.03302               1
        0.03335          0.5005          0.1527        0.001568         0.03336               1
         0.0337          0.2977          0.1496        0.001583          0.0337               1
        0.03404          0.4747          0.1597        0.001597         0.03404               1
        0.03438          0.4414           0.176        0.001612         0.03438               1
        0.03472           0.389          0.1318        0.001626         0.03472               1
        0.03506          0.6523          0.1652        0.001641         0.03507               1
         0.0354           0.577          0.1625        0.001655         0.03541               1
        0.03552           0.493        0.005887        0.004839         0.03581               1
        0.03575          0.4977          0.1803         0.00167         0.03575               1
        0.03609          0.3311          0.1482        0.001684         0.03609               1
        0.03643          0.8502          0.1646        0.001699         0.03643               1
        0.03677          0.2163          0.1209        0.001713         0.03678               1
        0.03711          0.4645          0.1419        0.001728         0.03712               1
        0.03746          0.3563          0.1552        0.001742         0.03746               1
         0.0378          0.4281          0.1519        0.001757          0.0378               1
        0.03814          0.3013           0.154        0.001771         0.03814               1
        0.03848          0.4627          0.1682        0.001786         0.03848               1
        0.03925          0.4626        0.004638        0.004892         0.03951               1
        0.04298          0.4373         0.00459        0.004951         0.04322               1
        0.04672           0.423        0.004135        0.005016         0.04694               1
        0.05045          0.4085        0.003877        0.005085         0.05065               1
        0.05418          0.4038        0.004014        0.005159         0.05437               1
         0.0579          0.4008         0.00428        0.005237         0.05808               1
        0.06163          0.4029        0.003642        0.005319          0.0618               1
        0.06536          0.3971        0.003834        0.005405         0.06551               1
        0.06908          0.3902        0.003823        0.005495         0.06923               1
         0.0728          0.3924        0.003835        0.005588         0.07294               1
        0.07652          0.3927        0.003876        0.005685         0.07665               1
        0.08023          0.3901        0.003186        0.005784         0.08036               1
        0.08395          0.3901        0.003533        0.005887         0.08407               1
        0.08766          0.3888        0.003662        0.005992         0.08778               1
        0.09137           0.391        0.003811          0.0061         0.09148               1
        0.09508          0.3935        0.004001         0.00621         0.09518               1
        0.09878           0.391        0.003633        0.006322         0.09888               1
         0.1025          0.3933        0.003385        0.006437          0.1026               1
         0.1062          0.3889        0.003301        0.006554          0.1063               1
         0.1099          0.3955        0.003213        0.006672            0.11               1
         0.1136          0.4016        0.003471        0.006793          0.1137               1
         0.1173          0.3963        0.003198        0.006915          0.1173               1
         0.1209          0.3974        0.003085        0.007038           0.121               1
         0.1246          0.3963        0.003074        0.007164          0.1247               1
         0.1283          0.3947        0.003759         0.00729          0.1284               1
          0.132          0.3951        0.002831        0.007418          0.1321               1
         0.1357          0.4006        0.003101        0.007547          0.1357               1
         0.1393          0.3979        0.002942        0.007677          0.1394               1
          0.143          0.4018        0.002855        0.007808          0.1431               1
         0.1466          0.4015        0.002869        0.007941          0.1467               1
         0.1503          0.4057         0.00313        0.008074          0.1504               1
          0.154          0.4085        0.002818        0.008208           0.154               1
         0.1576          0.4075        0.002944        0.008343          0.1577               1
         0.1612          0.4086        0.002859        0.008479          0.1613               1
         0.1649          0.4011        0.002741        0.008615          0.1649               1
         0.1685          0.4098         0.00291        0.008752          0.1686               1
         0.1721          0.4009        0.002934         0.00889          0.1722               1
         0.1758          0.4082        0.002952        0.009029          0.1758               1
         0.1794            0.41        0.002843        0.009167          0.1794               1
          0.183          0.4048         0.00264        0.009307          0.1831               1
         0.1866          0.4017        0.002885        0.009447          0.1867               1
         0.1902          0.3988        0.003037        0.009587          0.1903               1
         0.1938          0.3965        0.002994        0.009728          0.1939               1
         0.1974          0.3859        0.002947        0.009869          0.1975               1
          0.201           0.382        0.003005         0.01001          0.2011               1
         0.2046          0.3758        0.002704         0.01015          0.2046               1
         0.2082          0.3648        0.003044         0.01029          0.2082               1
         0.2117          0.3575        0.003111         0.01044          0.2118               1
         0.2153          0.3494        0.002833         0.01058          0.2154               1
         0.2189          0.3383        0.002741         0.01072          0.2189               1
         0.2224          0.3309        0.003019         0.01086          0.2225               1
          0.226          0.3201        0.003143         0.01101           0.226               1
         0.2295          0.3155        0.003294         0.01115          0.2296               1
         0.2331          0.3036        0.003321         0.01129          0.2331               1
         0.2366          0.2946        0.003316         0.01144          0.2366               1
         0.2401          0.2814        0.002601         0.01158          0.2402               1
         0.2436          0.2695        0.003128         0.01172          0.2437               1
         0.2472          0.2603        0.002815         0.01187          0.2472               1
         0.2507          0.2493        0.002762         0.01201          0.2507               1
         0.2542          0.2367        0.002809         0.01216          0.2542               1
         0.2577          0.2233        0.002711          0.0123          0.2577               1
         0.2611          0.2064        0.002677         0.01244          0.2612               1
         0.2646          0.1981        0.002847         0.01259          0.2647               1
         0.2681           0.187        0.002487         0.01273          0.2681               1
         0.2716          0.1738        0.002629         0.01287          0.2716               1
          0.275          0.1607        0.002413         0.01302          0.2751               1
         0.2785           0.153        0.002475         0.01316          0.2785               1
         0.2819          0.1383        0.002372         0.01331          0.2819               1
         0.2854          0.1286         0.00206         0.01345          0.2854               1
         0.2888          0.1171        0.002186         0.01359          0.2888               1
         0.2922          0.1082        0.002111         0.01373          0.2922               1
         0.2956         0.09762        0.002028         0.01388          0.2957               1
          0.299         0.08752        0.001807         0.01402          0.2991               1
         0.3024         0.07698        0.001828         0.01416          0.3025               1
         0.3058         0.06997        0.001822         0.01431          0.3059               1
         0.3092         0.05847        0.001634         0.01445          0.3093               1
         0.3126          0.0499        0.001394         0.01459          0.3126               1
          0.316         0.04288        0.001483         0.01473           0.316               1
         0.3193         0.03673        0.001381         0.01487          0.3194               1
         0.3227         0.03299         0.00124         0.01502          0.3227               1
          0.326         0.02466        0.001291         0.01516          0.3261               1
         0.3294         0.02134        0.001081          0.0153          0.3294               1
         0.3327         0.01761       0.0008355         0.01544          0.3327               1
          0.336         0.01663       0.0009289         0.01558          0.3361               1
         0.3394         0.01471       0.0009546         0.01572          0.3394               1
         0.3427         0.01431       0.0008965         0.01586          0.3427               1
          0.346         0.01335       0.0009559           0.016           0.346               1
         0.3493         0.01225       0.0009457         0.01614          0.3493               1
         0.3525         0.01045       0.0008757         0.01628          0.3526               1
         0.3558        0.009813       0.0009759         0.01642          0.3559               1
         0.3591         0.01046       0.0008425         0.01656          0.3591               1
         0.3624         0.01109       0.0008722          0.0167          0.3624               1
         0.3656         0.01223       0.0007878         0.01684          0.3656               1
