FILE CREATED: Wed, Jun 27, 2007 
NSORT-ed   Jun07026.ABS 	  +  Jun07028.ABS	  + none
normalized to   Jun07028.ABS
multiplicative factor 1-2 =   0.90945079	 multiplicative factor 2-3 =            1
The 6 columns are | Q (1/A) | I(Q) (1/cm) | std. dev. I(Q) (1/cm) | sigmaQ | meanQ | ShadowFactor|
       0.002224            1632           75.64       0.0005223        0.002283          0.9972
       0.002567             914           39.02       0.0005246        0.002617               1
       0.002909           547.5           20.14       0.0005271        0.002953               1
       0.003251           352.9           11.81       0.0005304        0.003291               1
       0.003593           241.2            7.12       0.0005342        0.003629               1
       0.003936           174.5           5.223       0.0005386        0.003968               1
       0.004278           127.3           3.799       0.0005434        0.004308               1
        0.00462           99.68           2.948       0.0005487        0.004648               1
       0.004962           79.21           2.253       0.0005544        0.004988               1
       0.005304           62.08           1.852       0.0005605        0.005329               1
       0.005647           50.28           1.408        0.000567        0.005669               1
       0.005989           40.42           1.381       0.0005738         0.00601               1
       0.006331           35.49            1.24       0.0005809        0.006351               1
       0.006673           28.66           1.186       0.0005884        0.006692               1
       0.007015           23.85          0.7502       0.0005962        0.007034               1
       0.007358           21.81          0.8404       0.0006042        0.007375               1
         0.0077           18.11          0.7693       0.0006126        0.007717               1
       0.008042           15.83          0.6276       0.0006212        0.008058               1
       0.008384           14.22          0.6818         0.00063          0.0084               1
       0.008726           12.35          0.5395       0.0006391        0.008741               1
       0.009069           10.37          0.5633       0.0006485        0.009083               1
       0.009411           9.858           0.573        0.000658        0.009424               1
       0.009753           8.725          0.5164       0.0006678        0.009766               1
         0.0101           7.709          0.3948       0.0006778         0.01011               1
        0.01044           6.452          0.3962        0.000688         0.01045               1
        0.01078           6.538          0.4095       0.0006983         0.01079               1
        0.01112           5.898          0.3475       0.0007088         0.01113               1
        0.01146           5.295          0.3528       0.0007196         0.01148               1
        0.01181           5.661          0.2988       0.0007304         0.01182               1
        0.01215           4.143          0.2751       0.0007414         0.01216               1
        0.01249           3.662          0.2873       0.0007526          0.0125               1
        0.01283           4.114          0.3044       0.0007639         0.01284               1
        0.01317           2.697          0.2623       0.0007753         0.01318               1
        0.01352           2.938          0.2456       0.0007869         0.01353               1
        0.01386           2.766          0.2622       0.0007986         0.01387               1
         0.0142           2.502          0.2352       0.0008104         0.01421               1
        0.01454           2.887          0.2669       0.0008223         0.01455               1
        0.01489           2.393          0.2518       0.0008344         0.01489               1
        0.01523           2.282          0.2056       0.0008465         0.01524               1
        0.01557           2.688          0.2296       0.0008587         0.01558               1
        0.01591           2.285          0.2298       0.0008711         0.01592               1
        0.01625           1.662          0.1894       0.0008835         0.01626               1
         0.0166           1.717          0.1833        0.000896          0.0166               1
        0.01694            1.58          0.1778       0.0009086         0.01695               1
        0.01728           1.649          0.1805       0.0009212         0.01729               1
        0.01762           1.354          0.1766        0.000934         0.01763               1
        0.01796           1.417          0.1743       0.0009468         0.01797               1
        0.01831           1.351          0.1626       0.0009597         0.01831               1
        0.01865           1.462          0.1744       0.0009726         0.01866               1
        0.01899           1.469          0.1712       0.0009856           0.019               1
        0.01933           1.273          0.1694       0.0009987         0.01934               1
        0.01968           1.083          0.1542        0.001012         0.01968               1
        0.02002           1.034          0.1576        0.001025         0.02002               1
        0.02036           0.984          0.1418        0.001038         0.02037               1
         0.0207          0.8038          0.1728        0.001052         0.02071               1
        0.02104          0.9431          0.1426        0.001065         0.02105               1
        0.02139           1.115          0.1513        0.001078         0.02139               1
        0.02173           0.702           0.143        0.001092         0.02173               1
        0.02207          0.6777          0.1389        0.001105         0.02208               1
        0.02241          0.5943          0.1572        0.001119         0.02242               1
        0.02275          0.9804          0.1609        0.001132         0.02276               1
         0.0231          0.7347          0.1606        0.001146          0.0231               1
        0.02344          0.6282          0.1712         0.00116         0.02344               1
        0.02378          0.9413          0.1713        0.001173         0.02379               1
        0.02412          0.6735          0.1587        0.001187         0.02413               1
        0.02446          0.5246          0.1557        0.001201         0.02447               1
        0.02481          0.9777          0.1569        0.001215         0.02481               1
        0.02515          0.5445          0.1759        0.001229         0.02515               1
        0.02549          0.7049          0.1412        0.001242         0.02549               1
        0.02583          0.4456          0.1426        0.001256         0.02584               1
        0.02617          0.5957          0.1616         0.00127         0.02618               1
        0.02652          0.7279          0.1705        0.001284         0.02652               1
        0.02686          0.9577          0.1545        0.001298         0.02686               1
         0.0272          0.5262          0.1595        0.001312          0.0272               1
        0.02754          0.4963          0.1761        0.001326         0.02755               1
        0.02788          0.6865          0.1792         0.00134         0.02789               1
        0.02804           0.616         0.01006        0.004752         0.02841               1
        0.02823          0.5262          0.1596        0.001355         0.02823               1
        0.02857          0.4926           0.155        0.001369         0.02857               1
        0.02891          0.7357          0.1743        0.001383         0.02891               1
        0.02925          0.6741          0.1688        0.001397         0.02926               1
        0.02959          0.5225           0.157        0.001411          0.0296               1
        0.02994           0.386          0.1567        0.001425         0.02994               1
        0.03028          0.7142          0.1838         0.00144         0.03028               1
        0.03062          0.7347          0.1444        0.001454         0.03062               1
        0.03096          0.7498          0.1598        0.001468         0.03097               1
         0.0313           0.146          0.1505        0.001482         0.03131               1
        0.03164          0.8712          0.1551        0.001497         0.03165               1
        0.03178          0.5435        0.006643        0.004792         0.03211               1
        0.03199          0.2321          0.1416        0.001511         0.03199               1
        0.03233          0.3204          0.1477        0.001525         0.03233               1
        0.03267          0.4317          0.1478         0.00154         0.03267               1
        0.03301          0.4312          0.1571        0.001554         0.03302               1
        0.03335          0.1849          0.1411        0.001568         0.03336               1
         0.0337          0.4222          0.1722        0.001583          0.0337               1
        0.03404          0.3344          0.1421        0.001597         0.03404               1
        0.03438            0.19           0.156        0.001612         0.03438               1
        0.03472          0.3811          0.1548        0.001626         0.03472               1
        0.03506           0.602          0.1729        0.001641         0.03507               1
         0.0354          0.2858           0.139        0.001655         0.03541               1
        0.03552           0.489        0.005433        0.004839         0.03581               1
        0.03575          0.3176          0.1572         0.00167         0.03575               1
        0.03609          0.3938          0.1558        0.001684         0.03609               1
        0.03643          0.2069          0.1322        0.001699         0.03643               1
        0.03677          0.6343          0.1602        0.001713         0.03678               1
        0.03711          0.4655          0.1505        0.001728         0.03712               1
        0.03746          0.4376          0.1608        0.001742         0.03746               1
         0.0378          0.1968          0.1362        0.001757          0.0378               1
        0.03814           0.419          0.1666        0.001771         0.03814               1
        0.03848          0.5403          0.1762        0.001786         0.03848               1
        0.03925          0.4607        0.005079        0.004892         0.03951               1
        0.04298          0.4419        0.003838        0.004951         0.04322               1
        0.04672          0.4267        0.004287        0.005016         0.04694               1
        0.05045          0.4172        0.004561        0.005085         0.05065               1
        0.05418          0.4191        0.004232        0.005159         0.05437               1
         0.0579          0.4099        0.004102        0.005237         0.05808               1
        0.06163          0.4046        0.003939        0.005319          0.0618               1
        0.06536          0.4082        0.003981        0.005405         0.06551               1
        0.06908          0.4054        0.004075        0.005495         0.06923               1
         0.0728          0.3996        0.003762        0.005588         0.07294               1
        0.07652          0.4027         0.00349        0.005685         0.07665               1
        0.08023          0.3941        0.003667        0.005784         0.08036               1
        0.08395          0.4035        0.003663        0.005887         0.08407               1
        0.08766          0.4058         0.00344        0.005992         0.08778               1
        0.09137          0.3994        0.003789          0.0061         0.09148               1
        0.09508          0.3973        0.003689         0.00621         0.09518               1
        0.09878          0.4017        0.003506        0.006322         0.09888               1
         0.1025          0.3937        0.003054        0.006437          0.1026               1
         0.1062          0.3937        0.003816        0.006554          0.1063               1
         0.1099          0.4026        0.003443        0.006672            0.11               1
         0.1136          0.3992        0.003051        0.006793          0.1137               1
         0.1173          0.4079        0.003425        0.006915          0.1173               1
         0.1209          0.3979        0.003236        0.007038           0.121               1
         0.1246          0.4031        0.003117        0.007164          0.1247               1
         0.1283          0.3988        0.003091         0.00729          0.1284               1
          0.132          0.4022         0.00323        0.007418          0.1321               1
         0.1357          0.3998        0.003431        0.007547          0.1357               1
         0.1393           0.405        0.003282        0.007677          0.1394               1
          0.143          0.4086        0.003048        0.007808          0.1431               1
         0.1466          0.4047        0.003045        0.007941          0.1467               1
         0.1503          0.4092        0.002775        0.008074          0.1504               1
          0.154          0.4067        0.002899        0.008208           0.154               1
         0.1576          0.4137        0.002914        0.008343          0.1577               1
         0.1612          0.4049        0.003207        0.008479          0.1613               1
         0.1649          0.4118        0.002801        0.008615          0.1649               1
         0.1685          0.4066        0.002782        0.008752          0.1686               1
         0.1721          0.4076        0.002815         0.00889          0.1722               1
         0.1758          0.4048        0.002917        0.009029          0.1758               1
         0.1794          0.4078        0.003063        0.009167          0.1794               1
          0.183          0.4073        0.002849        0.009307          0.1831               1
         0.1866          0.4019        0.002942        0.009447          0.1867               1
         0.1902          0.3997        0.003058        0.009587          0.1903               1
         0.1938          0.3923          0.0032        0.009728          0.1939               1
         0.1974          0.3874        0.002787        0.009869          0.1975               1
          0.201          0.3787        0.002887         0.01001          0.2011               1
         0.2046          0.3762        0.002721         0.01015          0.2046               1
         0.2082          0.3629        0.002942         0.01029          0.2082               1
         0.2117          0.3518        0.002837         0.01044          0.2118               1
         0.2153          0.3492        0.003092         0.01058          0.2154               1
         0.2189          0.3383        0.002841         0.01072          0.2189               1
         0.2224          0.3267        0.002896         0.01086          0.2225               1
          0.226          0.3181        0.003142         0.01101           0.226               1
         0.2295          0.3137         0.00324         0.01115          0.2296               1
         0.2331          0.2967        0.003101         0.01129          0.2331               1
         0.2366          0.2926        0.002992         0.01144          0.2366               1
         0.2401          0.2769        0.002959         0.01158          0.2402               1
         0.2436          0.2696        0.002912         0.01172          0.2437               1
         0.2472          0.2525        0.002949         0.01187          0.2472               1
         0.2507          0.2424        0.002662         0.01201          0.2507               1
         0.2542          0.2317        0.002897         0.01216          0.2542               1
         0.2577          0.2183        0.002678          0.0123          0.2577               1
         0.2611          0.2071         0.00248         0.01244          0.2612               1
         0.2646          0.1944         0.00245         0.01259          0.2647               1
         0.2681          0.1827        0.002452         0.01273          0.2681               1
         0.2716          0.1718        0.002466         0.01287          0.2716               1
          0.275          0.1611        0.002478         0.01302          0.2751               1
         0.2785          0.1487        0.002214         0.01316          0.2785               1
         0.2819          0.1386        0.002355         0.01331          0.2819               1
         0.2854          0.1279        0.002238         0.01345          0.2854               1
         0.2888          0.1177        0.002092         0.01359          0.2888               1
         0.2922          0.1039        0.001885         0.01373          0.2922               1
         0.2956         0.09754        0.001924         0.01388          0.2957               1
          0.299         0.08877        0.001742         0.01402          0.2991               1
         0.3024         0.07711        0.001881         0.01416          0.3025               1
         0.3058         0.06674        0.001751         0.01431          0.3059               1
         0.3092         0.05829        0.001441         0.01445          0.3093               1
         0.3126          0.0515        0.001548         0.01459          0.3126               1
          0.316         0.04362        0.001428         0.01473           0.316               1
         0.3193          0.0377        0.001314         0.01487          0.3194               1
         0.3227         0.03279        0.001228         0.01502          0.3227               1
          0.326         0.02728        0.001208         0.01516          0.3261               1
         0.3294         0.02016        0.001088          0.0153          0.3294               1
         0.3327          0.0174       0.0009761         0.01544          0.3327               1
          0.336         0.01569       0.0009861         0.01558          0.3361               1
         0.3394         0.01428       0.0009596         0.01572          0.3394               1
         0.3427         0.01294        0.000908         0.01586          0.3427               1
          0.346          0.0133       0.0008584           0.016           0.346               1
         0.3493         0.01091       0.0008094         0.01614          0.3493               1
         0.3525         0.01252       0.0008506         0.01628          0.3526               1
         0.3558         0.01203       0.0009222         0.01642          0.3559               1
         0.3591         0.01108       0.0008427         0.01656          0.3591               1
         0.3624         0.01134       0.0009857          0.0167          0.3624               1
         0.3656         0.01161       0.0008336         0.01684          0.3656               1
