FILE CREATED: Wed, Jun 27, 2007 
NSORT-ed   Jun07023.ABS 	  +  Jun07021.ABS	  + none
normalized to   Jun07021.ABS
multiplicative factor 1-2 =   0.90945079	 multiplicative factor 2-3 =            1
The 6 columns are | Q (1/A) | I(Q) (1/cm) | std. dev. I(Q) (1/cm) | sigmaQ | meanQ | ShadowFactor|
       0.002224            1610           80.89       0.0005223        0.002283          0.9972
       0.002567           898.7           41.83       0.0005246        0.002617               1
       0.002909           551.1           22.78       0.0005271        0.002953               1
       0.003251           353.9            11.9       0.0005304        0.003291               1
       0.003593           245.9            7.48       0.0005342        0.003629               1
       0.003936           176.3           5.393       0.0005386        0.003968               1
       0.004278           134.4           4.097       0.0005434        0.004308               1
        0.00462           100.5           2.991       0.0005487        0.004648               1
       0.004962           79.94            2.66       0.0005544        0.004988               1
       0.005304           63.73           2.124       0.0005605        0.005329               1
       0.005647           51.64           1.628        0.000567        0.005669               1
       0.005989           41.93           1.223       0.0005738         0.00601               1
       0.006331           35.34           1.063       0.0005809        0.006351               1
       0.006673           28.52           1.103       0.0005884        0.006692               1
       0.007015           25.09          0.7366       0.0005962        0.007034               1
       0.007358           23.18          0.9758       0.0006042        0.007375               1
         0.0077           19.34          0.7131       0.0006126        0.007717               1
       0.008042           17.93          0.6825       0.0006212        0.008058               1
       0.008384           13.74           0.629         0.00063          0.0084               1
       0.008726           13.01          0.5734       0.0006391        0.008741               1
       0.009069           11.71           0.575       0.0006485        0.009083               1
       0.009411           9.749          0.5449        0.000658        0.009424               1
       0.009753           9.104          0.4635       0.0006678        0.009766               1
         0.0101           8.151          0.4447       0.0006778         0.01011               1
        0.01044           6.774          0.3702        0.000688         0.01045               1
        0.01078           5.579          0.3426       0.0006983         0.01079               1
        0.01112           5.596          0.3826       0.0007088         0.01113               1
        0.01146           5.582          0.3521       0.0007196         0.01148               1
        0.01181           5.041          0.3447       0.0007304         0.01182               1
        0.01215           4.481          0.2832       0.0007414         0.01216               1
        0.01249           3.895          0.3161       0.0007526          0.0125               1
        0.01283           3.807          0.2781       0.0007639         0.01284               1
        0.01317           3.289          0.2939       0.0007753         0.01318               1
        0.01352           3.024          0.2327       0.0007869         0.01353               1
        0.01386           2.992           0.232       0.0007986         0.01387               1
         0.0142           2.506          0.2426       0.0008104         0.01421               1
        0.01454            2.85          0.2527       0.0008223         0.01455               1
        0.01489           2.613          0.2369       0.0008344         0.01489               1
        0.01523           2.426          0.2453       0.0008465         0.01524               1
        0.01557           2.123          0.2141       0.0008587         0.01558               1
        0.01591           2.131          0.2207       0.0008711         0.01592               1
        0.01625           1.345          0.1816       0.0008835         0.01626               1
         0.0166            1.59          0.1967        0.000896          0.0166               1
        0.01694           1.725          0.1943       0.0009086         0.01695               1
        0.01728           1.684          0.1986       0.0009212         0.01729               1
        0.01762           1.505          0.1987        0.000934         0.01763               1
        0.01796           1.517           0.195       0.0009468         0.01797               1
        0.01831           1.226          0.1844       0.0009597         0.01831               1
        0.01865           1.475          0.1698       0.0009726         0.01866               1
        0.01899            1.01          0.1648       0.0009856           0.019               1
        0.01933           1.276          0.1666       0.0009987         0.01934               1
        0.01968            1.05          0.1582        0.001012         0.01968               1
        0.02002           1.137          0.1469        0.001025         0.02002               1
        0.02036           1.109          0.1629        0.001038         0.02037               1
         0.0207           0.688          0.1619        0.001052         0.02071               1
        0.02104           1.075          0.1628        0.001065         0.02105               1
        0.02139          0.9677          0.1686        0.001078         0.02139               1
        0.02173          0.8263          0.1811        0.001092         0.02173               1
        0.02207            1.07          0.1863        0.001105         0.02208               1
        0.02241          0.6961          0.1626        0.001119         0.02242               1
        0.02275           1.003          0.1544        0.001132         0.02276               1
         0.0231           0.572          0.1532        0.001146          0.0231               1
        0.02344          0.5134          0.1398         0.00116         0.02344               1
        0.02378          0.8954          0.1607        0.001173         0.02379               1
        0.02412          0.8733          0.1735        0.001187         0.02413               1
        0.02446          0.8654          0.1712        0.001201         0.02447               1
        0.02481           1.014          0.1661        0.001215         0.02481               1
        0.02515          0.4402          0.1794        0.001229         0.02515               1
        0.02549          0.9476          0.1543        0.001242         0.02549               1
        0.02583          0.6006          0.1606        0.001256         0.02584               1
        0.02617          0.7227          0.1507         0.00127         0.02618               1
        0.02652          0.3753          0.1553        0.001284         0.02652               1
        0.02686          0.8281          0.1646        0.001298         0.02686               1
         0.0272          0.7046          0.1675        0.001312          0.0272               1
        0.02754          0.5449          0.1668        0.001326         0.02755               1
        0.02788          0.4268          0.1519         0.00134         0.02789               1
        0.02804          0.6254        0.009959        0.004752         0.02841               1
        0.02823          0.6885          0.1803        0.001355         0.02823               1
        0.02857          0.9006          0.1824        0.001369         0.02857               1
        0.02891          0.6296          0.1587        0.001383         0.02891               1
        0.02925          0.7366          0.1602        0.001397         0.02926               1
        0.02959          0.4501          0.1697        0.001411          0.0296               1
        0.02994          0.4812          0.1692        0.001425         0.02994               1
        0.03028          0.4688           0.175         0.00144         0.03028               1
        0.03062          0.8043          0.1597        0.001454         0.03062               1
        0.03096           0.564          0.1444        0.001468         0.03097               1
         0.0313          0.5007          0.1542        0.001482         0.03131               1
        0.03164          0.7382          0.1638        0.001497         0.03165               1
        0.03178          0.5498        0.007347        0.004792         0.03211               1
        0.03199          0.3802          0.1451        0.001511         0.03199               1
        0.03233          0.2636          0.1519        0.001525         0.03233               1
        0.03267          0.4991          0.1591         0.00154         0.03267               1
        0.03301           0.249          0.1588        0.001554         0.03302               1
        0.03335          0.4705          0.1776        0.001568         0.03336               1
         0.0337          0.5225          0.1535        0.001583          0.0337               1
        0.03404          0.6179          0.1515        0.001597         0.03404               1
        0.03438          0.3284          0.1575        0.001612         0.03438               1
        0.03472          0.3988          0.1422        0.001626         0.03472               1
        0.03506          0.4453          0.1454        0.001641         0.03507               1
         0.0354          0.4851          0.1681        0.001655         0.03541               1
        0.03552          0.4908        0.006109        0.004839         0.03581               1
        0.03575          0.5105          0.1862         0.00167         0.03575               1
        0.03609          0.3488          0.1515        0.001684         0.03609               1
        0.03643          0.8163          0.1548        0.001699         0.03643               1
        0.03677          0.6294          0.1635        0.001713         0.03678               1
        0.03711          0.2453           0.131        0.001728         0.03712               1
        0.03746          0.1088          0.1304        0.001742         0.03746               1
         0.0378           0.344          0.1541        0.001757          0.0378               1
        0.03814           0.268           0.163        0.001771         0.03814               1
        0.03848          0.5181          0.1651        0.001786         0.03848               1
        0.03925          0.4546        0.004812        0.004892         0.03951               1
        0.04298          0.4379        0.003777        0.004951         0.04322               1
        0.04672           0.427        0.004315        0.005016         0.04694               1
        0.05045          0.4183        0.004272        0.005085         0.05065               1
        0.05418          0.4017        0.004384        0.005159         0.05437               1
         0.0579          0.4048        0.004267        0.005237         0.05808               1
        0.06163          0.4002        0.004087        0.005319          0.0618               1
        0.06536           0.398        0.004288        0.005405         0.06551               1
        0.06908          0.3933         0.00385        0.005495         0.06923               1
         0.0728          0.3909           0.004        0.005588         0.07294               1
        0.07652          0.3907        0.004128        0.005685         0.07665               1
        0.08023          0.3935        0.003474        0.005784         0.08036               1
        0.08395          0.3906        0.003418        0.005887         0.08407               1
        0.08766          0.3867        0.003838        0.005992         0.08778               1
        0.09137           0.397        0.003747          0.0061         0.09148               1
        0.09508          0.3954        0.003442         0.00621         0.09518               1
        0.09878          0.3884        0.003454        0.006322         0.09888               1
         0.1025          0.3927        0.003395        0.006437          0.1026               1
         0.1062          0.3937        0.003533        0.006554          0.1063               1
         0.1099          0.3923         0.00368        0.006672            0.11               1
         0.1136          0.3942        0.003386        0.006793          0.1137               1
         0.1173          0.4066        0.003261        0.006915          0.1173               1
         0.1209          0.3935        0.003063        0.007038           0.121               1
         0.1246          0.3983        0.003312        0.007164          0.1247               1
         0.1283          0.3976        0.003091         0.00729          0.1284               1
          0.132          0.3905        0.003439        0.007418          0.1321               1
         0.1357          0.3941        0.003336        0.007547          0.1357               1
         0.1393          0.4046         0.00325        0.007677          0.1394               1
          0.143          0.4029        0.002939        0.007808          0.1431               1
         0.1466          0.3998        0.002949        0.007941          0.1467               1
         0.1503          0.4064        0.002976        0.008074          0.1504               1
          0.154          0.4052        0.002753        0.008208           0.154               1
         0.1576           0.411        0.002875        0.008343          0.1577               1
         0.1612          0.4085        0.002725        0.008479          0.1613               1
         0.1649           0.404        0.003063        0.008615          0.1649               1
         0.1685          0.4072        0.003026        0.008752          0.1686               1
         0.1721          0.4101         0.00283         0.00889          0.1722               1
         0.1758          0.4023        0.002619        0.009029          0.1758               1
         0.1794          0.4073        0.003066        0.009167          0.1794               1
          0.183          0.4067        0.002858        0.009307          0.1831               1
         0.1866           0.397        0.002794        0.009447          0.1867               1
         0.1902          0.3914        0.003148        0.009587          0.1903               1
         0.1938          0.3968        0.002951        0.009728          0.1939               1
         0.1974          0.3893        0.002684        0.009869          0.1975               1
          0.201          0.3793        0.002713         0.01001          0.2011               1
         0.2046          0.3767        0.003065         0.01015          0.2046               1
         0.2082          0.3693        0.002994         0.01029          0.2082               1
         0.2117          0.3592        0.002952         0.01044          0.2118               1
         0.2153          0.3454        0.003054         0.01058          0.2154               1
         0.2189          0.3446        0.002939         0.01072          0.2189               1
         0.2224           0.331        0.002892         0.01086          0.2225               1
          0.226          0.3199        0.003011         0.01101           0.226               1
         0.2295          0.3181        0.003049         0.01115          0.2296               1
         0.2331          0.3006        0.002931         0.01129          0.2331               1
         0.2366          0.2938        0.002892         0.01144          0.2366               1
         0.2401          0.2811        0.003149         0.01158          0.2402               1
         0.2436           0.268        0.003107         0.01172          0.2437               1
         0.2472          0.2573        0.002878         0.01187          0.2472               1
         0.2507          0.2477        0.002821         0.01201          0.2507               1
         0.2542          0.2338        0.002731         0.01216          0.2542               1
         0.2577          0.2224         0.00253          0.0123          0.2577               1
         0.2611          0.2107        0.002699         0.01244          0.2612               1
         0.2646          0.1924        0.002485         0.01259          0.2647               1
         0.2681          0.1864        0.002398         0.01273          0.2681               1
         0.2716          0.1742        0.002064         0.01287          0.2716               1
          0.275          0.1601        0.002477         0.01302          0.2751               1
         0.2785          0.1538        0.002311         0.01316          0.2785               1
         0.2819          0.1363        0.002071         0.01331          0.2819               1
         0.2854          0.1318        0.002323         0.01345          0.2854               1
         0.2888          0.1177        0.002242         0.01359          0.2888               1
         0.2922          0.1046          0.0022         0.01373          0.2922               1
         0.2956         0.09754        0.002142         0.01388          0.2957               1
          0.299         0.08948        0.002251         0.01402          0.2991               1
         0.3024         0.07723        0.001934         0.01416          0.3025               1
         0.3058         0.06519        0.001851         0.01431          0.3059               1
         0.3092         0.05754        0.001539         0.01445          0.3093               1
         0.3126         0.05016        0.001431         0.01459          0.3126               1
          0.316         0.04193        0.001427         0.01473           0.316               1
         0.3193         0.04063        0.001485         0.01487          0.3194               1
         0.3227         0.03139        0.001177         0.01502          0.3227               1
          0.326          0.0252          0.0011         0.01516          0.3261               1
         0.3294         0.02267        0.001069          0.0153          0.3294               1
         0.3327         0.01942        0.001092         0.01544          0.3327               1
          0.336         0.01585        0.000964         0.01558          0.3361               1
         0.3394         0.01549        0.001075         0.01572          0.3394               1
         0.3427         0.01369       0.0008458         0.01586          0.3427               1
          0.346         0.01259       0.0008785           0.016           0.346               1
         0.3493          0.0121       0.0009176         0.01614          0.3493               1
         0.3525         0.01245       0.0008199         0.01628          0.3526               1
         0.3558          0.0105          0.0009         0.01642          0.3559               1
         0.3591         0.01086       0.0009183         0.01656          0.3591               1
         0.3624          0.0113       0.0008721          0.0167          0.3624               1
         0.3656         0.01009       0.0007743         0.01684          0.3656               1
