FILE CREATED: Wed, Jun 27, 2007 
NSORT-ed   Jun07017.ABS 	  +  Jun07015.ABS	  + none
normalized to   Jun07015.ABS
multiplicative factor 1-2 =   0.90945079	 multiplicative factor 2-3 =            1
The 6 columns are | Q (1/A) | I(Q) (1/cm) | std. dev. I(Q) (1/cm) | sigmaQ | meanQ | ShadowFactor|
       0.002224            1602           83.23       0.0005223        0.002283          0.9972
       0.002567           900.5           44.28       0.0005246        0.002617               1
       0.002909           542.8           22.46       0.0005271        0.002953               1
       0.003251           353.1           12.81       0.0005304        0.003291               1
       0.003593           244.6           8.557       0.0005342        0.003629               1
       0.003936           179.2           5.427       0.0005386        0.003968               1
       0.004278           135.5           4.483       0.0005434        0.004308               1
        0.00462           101.3           3.321       0.0005487        0.004648               1
       0.004962           81.67           2.719       0.0005544        0.004988               1
       0.005304           65.76           2.294       0.0005605        0.005329               1
       0.005647           51.64           1.876        0.000567        0.005669               1
       0.005989           42.78           1.328       0.0005738         0.00601               1
       0.006331           36.68            1.23       0.0005809        0.006351               1
       0.006673           30.22           1.188       0.0005884        0.006692               1
       0.007015           25.74           0.934       0.0005962        0.007034               1
       0.007358           22.59          0.8567       0.0006042        0.007375               1
         0.0077           18.67          0.7828       0.0006126        0.007717               1
       0.008042           17.64          0.7037       0.0006212        0.008058               1
       0.008384           14.16          0.6115         0.00063          0.0084               1
       0.008726           12.86          0.6698       0.0006391        0.008741               1
       0.009069           10.03          0.4755       0.0006485        0.009083               1
       0.009411           9.604          0.5135        0.000658        0.009424               1
       0.009753           9.367          0.4647       0.0006678        0.009766               1
         0.0101           9.095          0.4525       0.0006778         0.01011               1
        0.01044           7.363           0.436        0.000688         0.01045               1
        0.01078           6.325          0.3789       0.0006983         0.01079               1
        0.01112           5.876           0.382       0.0007088         0.01113               1
        0.01146           5.403          0.3982       0.0007196         0.01148               1
        0.01181           4.704          0.3438       0.0007304         0.01182               1
        0.01215           4.137          0.3143       0.0007414         0.01216               1
        0.01249           4.238          0.3292       0.0007526          0.0125               1
        0.01283           4.328          0.3034       0.0007639         0.01284               1
        0.01317           3.775          0.3028       0.0007753         0.01318               1
        0.01352           3.309          0.2667       0.0007869         0.01353               1
        0.01386           2.611          0.2545       0.0007986         0.01387               1
         0.0142           3.157          0.2671       0.0008104         0.01421               1
        0.01454           2.576          0.2463       0.0008223         0.01455               1
        0.01489           2.659          0.2237       0.0008344         0.01489               1
        0.01523           2.019          0.2101       0.0008465         0.01524               1
        0.01557           1.848          0.1893       0.0008587         0.01558               1
        0.01591           2.211          0.2011       0.0008711         0.01592               1
        0.01625           1.696          0.1918       0.0008835         0.01626               1
         0.0166           1.773          0.1864        0.000896          0.0166               1
        0.01694           1.625          0.2011       0.0009086         0.01695               1
        0.01728           1.593          0.2014       0.0009212         0.01729               1
        0.01762           1.607          0.1882        0.000934         0.01763               1
        0.01796           1.108          0.1847       0.0009468         0.01797               1
        0.01831           1.549           0.171       0.0009597         0.01831               1
        0.01865           1.335          0.1762       0.0009726         0.01866               1
        0.01899           1.396          0.1651       0.0009856           0.019               1
        0.01933          0.8665          0.1559       0.0009987         0.01934               1
        0.01968           1.143          0.1615        0.001012         0.01968               1
        0.02002           1.258          0.1625        0.001025         0.02002               1
        0.02036            1.22          0.1555        0.001038         0.02037               1
         0.0207           1.085           0.177        0.001052         0.02071               1
        0.02104           1.037          0.1365        0.001065         0.02105               1
        0.02139          0.9158           0.153        0.001078         0.02139               1
        0.02173          0.8776          0.1669        0.001092         0.02173               1
        0.02207           1.272          0.1636        0.001105         0.02208               1
        0.02241           0.638          0.1577        0.001119         0.02242               1
        0.02275          0.8483          0.1578        0.001132         0.02276               1
         0.0231          0.8435          0.1601        0.001146          0.0231               1
        0.02344          0.9376          0.1687         0.00116         0.02344               1
        0.02378           0.747          0.1515        0.001173         0.02379               1
        0.02412          0.7077          0.1608        0.001187         0.02413               1
        0.02446          0.5422          0.1426        0.001201         0.02447               1
        0.02481            1.08          0.1592        0.001215         0.02481               1
        0.02515           0.492          0.1947        0.001229         0.02515               1
        0.02549          0.8208          0.1391        0.001242         0.02549               1
        0.02583          0.7067          0.1687        0.001256         0.02584               1
        0.02617           0.337          0.1391         0.00127         0.02618               1
        0.02652          0.6025           0.181        0.001284         0.02652               1
        0.02686          0.6759          0.1566        0.001298         0.02686               1
         0.0272           0.499          0.1597        0.001312          0.0272               1
        0.02754          0.8497          0.1811        0.001326         0.02755               1
        0.02788          0.1022          0.1515         0.00134         0.02789               1
        0.02804           0.641        0.009818        0.004752         0.02841               1
        0.02823          0.7645          0.1623        0.001355         0.02823               1
        0.02857          0.5225          0.1285        0.001369         0.02857               1
        0.02891          0.4347          0.1442        0.001383         0.02891               1
        0.02925          0.5841          0.1489        0.001397         0.02926               1
        0.02959           0.324          0.1396        0.001411          0.0296               1
        0.02994          0.9977          0.1883        0.001425         0.02994               1
        0.03028           0.575          0.1688         0.00144         0.03028               1
        0.03062          0.6015          0.1419        0.001454         0.03062               1
        0.03096          0.4783          0.1492        0.001468         0.03097               1
         0.0313          0.3706          0.1699        0.001482         0.03131               1
        0.03164          0.7215           0.148        0.001497         0.03165               1
        0.03178          0.5561        0.007437        0.004792         0.03211               1
        0.03199          0.3037          0.1518        0.001511         0.03199               1
        0.03233          0.1893          0.1531        0.001525         0.03233               1
        0.03267          0.3291          0.1532         0.00154         0.03267               1
        0.03301          0.4075          0.1637        0.001554         0.03302               1
        0.03335          0.6966          0.1828        0.001568         0.03336               1
         0.0337          0.4561          0.1605        0.001583          0.0337               1
        0.03404          0.5382          0.1701        0.001597         0.03404               1
        0.03438         0.05915          0.1518        0.001612         0.03438               1
        0.03472          0.2407            0.15        0.001626         0.03472               1
        0.03506          0.5805          0.1601        0.001641         0.03507               1
         0.0354          0.2497          0.1516        0.001655         0.03541               1
        0.03552          0.5018        0.005716        0.004839         0.03581               1
        0.03575          0.4334          0.1797         0.00167         0.03575               1
        0.03609           0.585           0.146        0.001684         0.03609               1
        0.03643          0.6393          0.1495        0.001699         0.03643               1
        0.03677          0.6662          0.1557        0.001713         0.03678               1
        0.03711          0.3798          0.1417        0.001728         0.03712               1
        0.03746          0.2941          0.1576        0.001742         0.03746               1
         0.0378          0.4806           0.154        0.001757          0.0378               1
        0.03814          0.4113          0.1707        0.001771         0.03814               1
        0.03848          0.2849          0.1763        0.001786         0.03848               1
        0.03925          0.4597        0.005226        0.004892         0.03951               1
        0.04298          0.4372        0.004434        0.004951         0.04322               1
        0.04672          0.4286        0.004499        0.005016         0.04694               1
        0.05045          0.4141        0.004623        0.005085         0.05065               1
        0.05418          0.4109        0.004454        0.005159         0.05437               1
         0.0579          0.4009         0.00435        0.005237         0.05808               1
        0.06163          0.4001        0.004362        0.005319          0.0618               1
        0.06536          0.3959        0.003903        0.005405         0.06551               1
        0.06908          0.3986        0.003611        0.005495         0.06923               1
         0.0728          0.3981        0.004409        0.005588         0.07294               1
        0.07652          0.3919        0.003854        0.005685         0.07665               1
        0.08023          0.3897        0.004059        0.005784         0.08036               1
        0.08395          0.3968         0.00416        0.005887         0.08407               1
        0.08766          0.3871        0.004111        0.005992         0.08778               1
        0.09137          0.3879        0.003669          0.0061         0.09148               1
        0.09508          0.3935        0.003557         0.00621         0.09518               1
        0.09878          0.3873        0.003905        0.006322         0.09888               1
         0.1025          0.3909         0.00359        0.006437          0.1026               1
         0.1062          0.3956        0.003475        0.006554          0.1063               1
         0.1099          0.3893        0.003318        0.006672            0.11               1
         0.1136          0.3938        0.003485        0.006793          0.1137               1
         0.1173          0.4004        0.002978        0.006915          0.1173               1
         0.1209          0.3978        0.003204        0.007038           0.121               1
         0.1246          0.3943         0.00293        0.007164          0.1247               1
         0.1283          0.3967        0.002989         0.00729          0.1284               1
          0.132          0.3993        0.003455        0.007418          0.1321               1
         0.1357          0.4008        0.003473        0.007547          0.1357               1
         0.1393          0.4024        0.002951        0.007677          0.1394               1
          0.143          0.4014        0.003226        0.007808          0.1431               1
         0.1466          0.4055         0.00292        0.007941          0.1467               1
         0.1503          0.4058        0.002919        0.008074          0.1504               1
          0.154          0.4093        0.002955        0.008208           0.154               1
         0.1576          0.4045         0.00273        0.008343          0.1577               1
         0.1612          0.4065        0.002854        0.008479          0.1613               1
         0.1649          0.4041        0.002818        0.008615          0.1649               1
         0.1685          0.4048        0.002935        0.008752          0.1686               1
         0.1721          0.4099        0.002816         0.00889          0.1722               1
         0.1758          0.4053        0.002868        0.009029          0.1758               1
         0.1794          0.4055        0.003039        0.009167          0.1794               1
          0.183          0.4043        0.002965        0.009307          0.1831               1
         0.1866          0.4061        0.002812        0.009447          0.1867               1
         0.1902          0.3973        0.002868        0.009587          0.1903               1
         0.1938          0.3977        0.002976        0.009728          0.1939               1
         0.1974          0.3888        0.002998        0.009869          0.1975               1
          0.201          0.3871        0.003189         0.01001          0.2011               1
         0.2046          0.3762        0.003017         0.01015          0.2046               1
         0.2082          0.3672        0.003016         0.01029          0.2082               1
         0.2117           0.363         0.00293         0.01044          0.2118               1
         0.2153          0.3493         0.00302         0.01058          0.2154               1
         0.2189          0.3449        0.002732         0.01072          0.2189               1
         0.2224          0.3307        0.002829         0.01086          0.2225               1
          0.226          0.3259        0.003127         0.01101           0.226               1
         0.2295          0.3199         0.00308         0.01115          0.2296               1
         0.2331           0.305         0.00311         0.01129          0.2331               1
         0.2366          0.2992         0.00285         0.01144          0.2366               1
         0.2401          0.2837        0.002982         0.01158          0.2402               1
         0.2436          0.2713        0.003015         0.01172          0.2437               1
         0.2472          0.2569        0.002654         0.01187          0.2472               1
         0.2507          0.2489        0.002837         0.01201          0.2507               1
         0.2542          0.2399        0.002789         0.01216          0.2542               1
         0.2577          0.2228        0.002739          0.0123          0.2577               1
         0.2611          0.2119        0.002889         0.01244          0.2612               1
         0.2646          0.1963        0.002763         0.01259          0.2647               1
         0.2681           0.189        0.002591         0.01273          0.2681               1
         0.2716          0.1783        0.002559         0.01287          0.2716               1
          0.275          0.1627        0.002608         0.01302          0.2751               1
         0.2785            0.15        0.002346         0.01316          0.2785               1
         0.2819          0.1416        0.002274         0.01331          0.2819               1
         0.2854          0.1295        0.002167         0.01345          0.2854               1
         0.2888          0.1176          0.0019         0.01359          0.2888               1
         0.2922          0.1057        0.001925         0.01373          0.2922               1
         0.2956          0.1008        0.002089         0.01388          0.2957               1
          0.299         0.08765        0.001964         0.01402          0.2991               1
         0.3024         0.07658        0.001985         0.01416          0.3025               1
         0.3058         0.06771        0.001518         0.01431          0.3059               1
         0.3092         0.06066        0.001488         0.01445          0.3093               1
         0.3126         0.05044        0.001545         0.01459          0.3126               1
          0.316         0.04255        0.001346         0.01473           0.316               1
         0.3193         0.03608        0.001346         0.01487          0.3194               1
         0.3227          0.0312        0.001283         0.01502          0.3227               1
          0.326         0.02703        0.001164         0.01516          0.3261               1
         0.3294          0.0219         0.00103          0.0153          0.3294               1
         0.3327         0.01966        0.001143         0.01544          0.3327               1
          0.336         0.01725       0.0008908         0.01558          0.3361               1
         0.3394         0.01365        0.000957         0.01572          0.3394               1
         0.3427           0.013       0.0008444         0.01586          0.3427               1
          0.346         0.01201       0.0008889           0.016           0.346               1
         0.3493         0.01184       0.0009811         0.01614          0.3493               1
         0.3525         0.01301        0.000849         0.01628          0.3526               1
         0.3558         0.01239       0.0008696         0.01642          0.3559               1
         0.3591         0.01078        0.000908         0.01656          0.3591               1
         0.3624         0.01038       0.0007499          0.0167          0.3624               1
         0.3656         0.01131        0.000876         0.01684          0.3656               1
