FILE CREATED: Wed, Jun 27, 2007 
NSORT-ed   Jun07012.ABS 	  +  Jun07014.ABS	  + none
normalized to   Jun07014.ABS
multiplicative factor 1-2 =   0.90945079	 multiplicative factor 2-3 =            1
The 6 columns are | Q (1/A) | I(Q) (1/cm) | std. dev. I(Q) (1/cm) | sigmaQ | meanQ | ShadowFactor|
       0.002224            1610           83.99       0.0005223        0.002283          0.9972
       0.002567           913.1           43.34       0.0005246        0.002617               1
       0.002909           559.8           23.99       0.0005271        0.002953               1
       0.003251           353.5           13.41       0.0005304        0.003291               1
       0.003593           244.6           7.882       0.0005342        0.003629               1
       0.003936           176.4           5.672       0.0005386        0.003968               1
       0.004278           132.5           4.267       0.0005434        0.004308               1
        0.00462           103.5           3.417       0.0005487        0.004648               1
       0.004962           81.99           2.674       0.0005544        0.004988               1
       0.005304           64.71           1.898       0.0005605        0.005329               1
       0.005647            53.6           1.682        0.000567        0.005669               1
       0.005989           44.26            1.53       0.0005738         0.00601               1
       0.006331           36.54           1.165       0.0005809        0.006351               1
       0.006673           29.85           1.132       0.0005884        0.006692               1
       0.007015           26.09          0.9358       0.0005962        0.007034               1
       0.007358           20.81          0.7718       0.0006042        0.007375               1
         0.0077           19.59          0.7756       0.0006126        0.007717               1
       0.008042           17.16          0.6477       0.0006212        0.008058               1
       0.008384           14.49          0.6006         0.00063          0.0084               1
       0.008726           13.41          0.6308       0.0006391        0.008741               1
       0.009069           12.44          0.4786       0.0006485        0.009083               1
       0.009411           10.85          0.5092        0.000658        0.009424               1
       0.009753            9.09          0.4562       0.0006678        0.009766               1
         0.0101           7.755          0.3782       0.0006778         0.01011               1
        0.01044           8.095          0.3754        0.000688         0.01045               1
        0.01078           6.521          0.4121       0.0006983         0.01079               1
        0.01112           5.979          0.3278       0.0007088         0.01113               1
        0.01146           4.623          0.3279       0.0007196         0.01148               1
        0.01181           5.327           0.334       0.0007304         0.01182               1
        0.01215           4.592          0.3156       0.0007414         0.01216               1
        0.01249           4.377           0.311       0.0007526          0.0125               1
        0.01283           4.044           0.285       0.0007639         0.01284               1
        0.01317           4.018          0.2882       0.0007753         0.01318               1
        0.01352            3.27           0.267       0.0007869         0.01353               1
        0.01386           3.671          0.2851       0.0007986         0.01387               1
         0.0142           2.522          0.2139       0.0008104         0.01421               1
        0.01454           2.772          0.2439       0.0008223         0.01455               1
        0.01489           2.805          0.2301       0.0008344         0.01489               1
        0.01523           2.399          0.2197       0.0008465         0.01524               1
        0.01557           2.444          0.2344       0.0008587         0.01558               1
        0.01591           2.078          0.2174       0.0008711         0.01592               1
        0.01625           1.743          0.1969       0.0008835         0.01626               1
         0.0166           1.827          0.1913        0.000896          0.0166               1
        0.01694           1.898          0.2008       0.0009086         0.01695               1
        0.01728           1.592          0.1817       0.0009212         0.01729               1
        0.01762            1.26          0.1731        0.000934         0.01763               1
        0.01796           1.305          0.1895       0.0009468         0.01797               1
        0.01831            1.35          0.1537       0.0009597         0.01831               1
        0.01865           1.367          0.1724       0.0009726         0.01866               1
        0.01899           1.222          0.1574       0.0009856           0.019               1
        0.01933            1.19          0.1807       0.0009987         0.01934               1
        0.01968           1.223          0.1676        0.001012         0.01968               1
        0.02002           1.152          0.1521        0.001025         0.02002               1
        0.02036          0.9349           0.148        0.001038         0.02037               1
         0.0207          0.8984          0.1713        0.001052         0.02071               1
        0.02104           1.043          0.1504        0.001065         0.02105               1
        0.02139          0.8884          0.1638        0.001078         0.02139               1
        0.02173          0.9176          0.1625        0.001092         0.02173               1
        0.02207           1.042           0.158        0.001105         0.02208               1
        0.02241          0.7782          0.1808        0.001119         0.02242               1
        0.02275          0.9422          0.1709        0.001132         0.02276               1
         0.0231            1.04          0.1701        0.001146          0.0231               1
        0.02344          0.8118          0.1701         0.00116         0.02344               1
        0.02378          0.8509           0.183        0.001173         0.02379               1
        0.02412          0.7801          0.1599        0.001187         0.02413               1
        0.02446          0.7286          0.1706        0.001201         0.02447               1
        0.02481          0.9986          0.1702        0.001215         0.02481               1
        0.02515          0.5141          0.1718        0.001229         0.02515               1
        0.02549          0.8216          0.1542        0.001242         0.02549               1
        0.02583          0.6866          0.1722        0.001256         0.02584               1
        0.02617          0.7675          0.1718         0.00127         0.02618               1
        0.02652          0.4827          0.1622        0.001284         0.02652               1
        0.02686          0.8948           0.172        0.001298         0.02686               1
         0.0272          0.3795          0.1545        0.001312          0.0272               1
        0.02754          0.6588          0.1658        0.001326         0.02755               1
        0.02788          0.7445          0.1868         0.00134         0.02789               1
        0.02804          0.6333          0.0104        0.004752         0.02841               1
        0.02823          0.5825          0.1563        0.001355         0.02823               1
        0.02857           0.498          0.1627        0.001369         0.02857               1
        0.02891          0.6843          0.1678        0.001383         0.02891               1
        0.02925          0.7271          0.1703        0.001397         0.02926               1
        0.02959          0.4668          0.1572        0.001411          0.0296               1
        0.02994          0.7632          0.1619        0.001425         0.02994               1
        0.03028          0.6766          0.1698         0.00144         0.03028               1
        0.03062          0.6634          0.1348        0.001454         0.03062               1
        0.03096          0.5589          0.1614        0.001468         0.03097               1
         0.0313          0.4993          0.1728        0.001482         0.03131               1
        0.03164          0.6742          0.1711        0.001497         0.03165               1
        0.03178          0.5561        0.007524        0.004792         0.03211               1
        0.03199          0.4628           0.163        0.001511         0.03199               1
        0.03233          0.3798          0.1728        0.001525         0.03233               1
        0.03267          0.4291          0.1606         0.00154         0.03267               1
        0.03301          0.3494          0.1377        0.001554         0.03302               1
        0.03335          0.2434           0.141        0.001568         0.03336               1
         0.0337          0.3946          0.1579        0.001583          0.0337               1
        0.03404          0.7008          0.1774        0.001597         0.03404               1
        0.03438          0.3938          0.1681        0.001612         0.03438               1
        0.03472          0.4755           0.151        0.001626         0.03472               1
        0.03506          0.5272          0.1544        0.001641         0.03507               1
         0.0354          0.5049          0.1643        0.001655         0.03541               1
        0.03552          0.4982         0.00561        0.004839         0.03581               1
        0.03575          0.3125          0.1533         0.00167         0.03575               1
        0.03609           0.457          0.1545        0.001684         0.03609               1
        0.03643          0.6909          0.1683        0.001699         0.03643               1
        0.03677          0.6056           0.163        0.001713         0.03678               1
        0.03711          0.2756          0.1426        0.001728         0.03712               1
        0.03746          0.2522          0.1445        0.001742         0.03746               1
         0.0378          0.2815          0.1286        0.001757          0.0378               1
        0.03814          0.4902          0.1615        0.001771         0.03814               1
        0.03848          0.3844          0.2018        0.001786         0.03848               1
        0.03925          0.4596        0.005052        0.004892         0.03951               1
        0.04298           0.437        0.004593        0.004951         0.04322               1
        0.04672          0.4256        0.004094        0.005016         0.04694               1
        0.05045          0.4157        0.004525        0.005085         0.05065               1
        0.05418          0.4047        0.004109        0.005159         0.05437               1
         0.0579          0.4066        0.004057        0.005237         0.05808               1
        0.06163          0.3992        0.003896        0.005319          0.0618               1
        0.06536          0.4018        0.004224        0.005405         0.06551               1
        0.06908          0.3992        0.003962        0.005495         0.06923               1
         0.0728          0.3935        0.003957        0.005588         0.07294               1
        0.07652          0.3976        0.003225        0.005685         0.07665               1
        0.08023          0.3794        0.003698        0.005784         0.08036               1
        0.08395           0.397        0.003246        0.005887         0.08407               1
        0.08766           0.393        0.003687        0.005992         0.08778               1
        0.09137          0.3906        0.003298          0.0061         0.09148               1
        0.09508          0.3968        0.003364         0.00621         0.09518               1
        0.09878           0.392        0.003282        0.006322         0.09888               1
         0.1025          0.3949        0.003298        0.006437          0.1026               1
         0.1062           0.392        0.003444        0.006554          0.1063               1
         0.1099          0.3958        0.002913        0.006672            0.11               1
         0.1136          0.3945        0.003317        0.006793          0.1137               1
         0.1173          0.4006        0.003232        0.006915          0.1173               1
         0.1209          0.3925        0.003713        0.007038           0.121               1
         0.1246           0.407        0.003205        0.007164          0.1247               1
         0.1283          0.3967        0.002989         0.00729          0.1284               1
          0.132          0.4058        0.003334        0.007418          0.1321               1
         0.1357          0.3976        0.003238        0.007547          0.1357               1
         0.1393          0.4083        0.003019        0.007677          0.1394               1
          0.143          0.4022        0.003172        0.007808          0.1431               1
         0.1466          0.4055        0.003284        0.007941          0.1467               1
         0.1503          0.4035        0.002999        0.008074          0.1504               1
          0.154          0.4047        0.003014        0.008208           0.154               1
         0.1576           0.405        0.002969        0.008343          0.1577               1
         0.1612          0.4089        0.002997        0.008479          0.1613               1
         0.1649          0.4106        0.002997        0.008615          0.1649               1
         0.1685          0.4098        0.003075        0.008752          0.1686               1
         0.1721          0.4028         0.00299         0.00889          0.1722               1
         0.1758            0.41          0.0029        0.009029          0.1758               1
         0.1794           0.411        0.003064        0.009167          0.1794               1
          0.183          0.4036         0.00294        0.009307          0.1831               1
         0.1866           0.399        0.002857        0.009447          0.1867               1
         0.1902          0.3967        0.002856        0.009587          0.1903               1
         0.1938          0.4059        0.002853        0.009728          0.1939               1
         0.1974          0.3944        0.002783        0.009869          0.1975               1
          0.201          0.3929        0.002755         0.01001          0.2011               1
         0.2046          0.3823        0.003088         0.01015          0.2046               1
         0.2082          0.3684        0.002784         0.01029          0.2082               1
         0.2117          0.3589        0.002782         0.01044          0.2118               1
         0.2153          0.3495        0.003039         0.01058          0.2154               1
         0.2189          0.3401        0.002784         0.01072          0.2189               1
         0.2224          0.3306           0.003         0.01086          0.2225               1
          0.226          0.3226         0.00314         0.01101           0.226               1
         0.2295          0.3175        0.003045         0.01115          0.2296               1
         0.2331          0.3033        0.002938         0.01129          0.2331               1
         0.2366          0.2948        0.003103         0.01144          0.2366               1
         0.2401          0.2811        0.002684         0.01158          0.2402               1
         0.2436          0.2726        0.003142         0.01172          0.2437               1
         0.2472          0.2582        0.002669         0.01187          0.2472               1
         0.2507          0.2489        0.002785         0.01201          0.2507               1
         0.2542          0.2379         0.00274         0.01216          0.2542               1
         0.2577          0.2215        0.002937          0.0123          0.2577               1
         0.2611          0.2079        0.002467         0.01244          0.2612               1
         0.2646          0.1967         0.00249         0.01259          0.2647               1
         0.2681          0.1848        0.002555         0.01273          0.2681               1
         0.2716          0.1756        0.002561         0.01287          0.2716               1
          0.275          0.1641        0.002498         0.01302          0.2751               1
         0.2785          0.1543        0.002488         0.01316          0.2785               1
         0.2819          0.1387        0.002418         0.01331          0.2819               1
         0.2854          0.1285        0.002285         0.01345          0.2854               1
         0.2888          0.1187        0.002127         0.01359          0.2888               1
         0.2922          0.1076        0.002062         0.01373          0.2922               1
         0.2956         0.09888         0.00193         0.01388          0.2957               1
          0.299         0.08692        0.001722         0.01402          0.2991               1
         0.3024         0.07809        0.001879         0.01416          0.3025               1
         0.3058         0.06694        0.001762         0.01431          0.3059               1
         0.3092          0.0592        0.001749         0.01445          0.3093               1
         0.3126         0.05148        0.001622         0.01459          0.3126               1
          0.316         0.04509        0.001512         0.01473           0.316               1
         0.3193         0.03592        0.001335         0.01487          0.3194               1
         0.3227          0.0323        0.001323         0.01502          0.3227               1
          0.326         0.02725        0.001202         0.01516          0.3261               1
         0.3294         0.02146        0.001052          0.0153          0.3294               1
         0.3327         0.01966        0.001084         0.01544          0.3327               1
          0.336         0.01761       0.0009225         0.01558          0.3361               1
         0.3394          0.0144        0.001017         0.01572          0.3394               1
         0.3427         0.01212       0.0008602         0.01586          0.3427               1
          0.346           0.012       0.0009062           0.016           0.346               1
         0.3493         0.01181       0.0008681         0.01614          0.3493               1
         0.3525         0.01139       0.0009086         0.01628          0.3526               1
         0.3558         0.01147       0.0008891         0.01642          0.3559               1
         0.3591         0.01067       0.0008201         0.01656          0.3591               1
         0.3624        0.009145       0.0009161          0.0167          0.3624               1
         0.3656         0.01075       0.0008641         0.01684          0.3656               1
