FILE CREATED: Wed, Jun 27, 2007 
NSORT-ed   Jun07031.ABS 	  +  Jun07029.ABS	  + none
normalized to   Jun07029.ABS
multiplicative factor 1-2 =   0.90945079	 multiplicative factor 2-3 =            1
The 6 columns are | Q (1/A) | I(Q) (1/cm) | std. dev. I(Q) (1/cm) | sigmaQ | meanQ | ShadowFactor|
       0.002224            1033           52.08       0.0005223        0.002283          0.9972
       0.002567           580.4           28.01       0.0005246        0.002617               1
       0.002909           353.4           13.68       0.0005271        0.002953               1
       0.003251             231            8.11       0.0005304        0.003291               1
       0.003593           161.7           5.109       0.0005342        0.003629               1
       0.003936           118.2           3.684       0.0005386        0.003968               1
       0.004278           89.21           3.105       0.0005434        0.004308               1
        0.00462           67.69           2.062       0.0005487        0.004648               1
       0.004962           55.06           1.773       0.0005544        0.004988               1
       0.005304           42.51           1.384       0.0005605        0.005329               1
       0.005647           35.27           1.321        0.000567        0.005669               1
       0.005989           29.84           1.134       0.0005738         0.00601               1
       0.006331           25.06          0.9658       0.0005809        0.006351               1
       0.006673           20.94           1.005       0.0005884        0.006692               1
       0.007015           19.18          0.7711       0.0005962        0.007034               1
       0.007358           15.42          0.7236       0.0006042        0.007375               1
         0.0077           13.47          0.6557       0.0006126        0.007717               1
       0.008042           12.71          0.6556       0.0006212        0.008058               1
       0.008384           10.75          0.5459         0.00063          0.0084               1
       0.008726           9.768          0.4896       0.0006391        0.008741               1
       0.009069           8.183          0.5187       0.0006485        0.009083               1
       0.009411           7.021          0.4298        0.000658        0.009424               1
       0.009753           6.267          0.3855       0.0006678        0.009766               1
         0.0101             6.5          0.3842       0.0006778         0.01011               1
        0.01044            5.63          0.3784        0.000688         0.01045               1
        0.01078           5.896          0.4026       0.0006983         0.01079               1
        0.01112           4.464          0.3181       0.0007088         0.01113               1
        0.01146           3.997          0.3265       0.0007196         0.01148               1
        0.01181           4.278          0.3088       0.0007304         0.01182               1
        0.01215           3.434          0.2779       0.0007414         0.01216               1
        0.01249            3.49          0.2881       0.0007526          0.0125               1
        0.01283           3.777          0.3014       0.0007639         0.01284               1
        0.01317           3.636          0.2801       0.0007753         0.01318               1
        0.01352           2.859          0.2442       0.0007869         0.01353               1
        0.01386           2.242          0.2367       0.0007986         0.01387               1
         0.0142           2.305          0.2273       0.0008104         0.01421               1
        0.01454           2.048          0.2161       0.0008223         0.01455               1
        0.01489           2.012          0.2128       0.0008344         0.01489               1
        0.01523           1.857          0.2016       0.0008465         0.01524               1
        0.01557           1.607          0.2277       0.0008587         0.01558               1
        0.01591           1.699          0.1904       0.0008711         0.01592               1
        0.01625           1.398          0.2101       0.0008835         0.01626               1
         0.0166           1.403          0.2145        0.000896          0.0166               1
        0.01694           1.481          0.1667       0.0009086         0.01695               1
        0.01728           1.453          0.1673       0.0009212         0.01729               1
        0.01762           1.255          0.1588        0.000934         0.01763               1
        0.01796           1.166          0.1739       0.0009468         0.01797               1
        0.01831           1.496          0.1912       0.0009597         0.01831               1
        0.01865           1.271          0.1518       0.0009726         0.01866               1
        0.01899            1.02          0.1533       0.0009856           0.019               1
        0.01933          0.9376          0.1869       0.0009987         0.01934               1
        0.01968          0.9804          0.1587        0.001012         0.01968               1
        0.02002          0.7896          0.1398        0.001025         0.02002               1
        0.02036           1.001          0.1485        0.001038         0.02037               1
         0.0207          0.8724          0.1821        0.001052         0.02071               1
        0.02104           1.074          0.1523        0.001065         0.02105               1
        0.02139          0.6539          0.1437        0.001078         0.02139               1
        0.02173          0.8976          0.1689        0.001092         0.02173               1
        0.02207          0.8773          0.1641        0.001105         0.02208               1
        0.02241          0.5014          0.1629        0.001119         0.02242               1
        0.02275           1.006          0.1668        0.001132         0.02276               1
         0.0231          0.6883          0.1745        0.001146          0.0231               1
        0.02344          0.5457          0.1582         0.00116         0.02344               1
        0.02378          0.8954          0.1634        0.001173         0.02379               1
        0.02412          0.6729          0.1596        0.001187         0.02413               1
        0.02446          0.5146          0.1528        0.001201         0.02447               1
        0.02481          0.8079          0.1526        0.001215         0.02481               1
        0.02515           0.561          0.1954        0.001229         0.02515               1
        0.02549          0.8868          0.1522        0.001242         0.02549               1
        0.02583          0.4399          0.1589        0.001256         0.02584               1
        0.02617          0.6915          0.1598         0.00127         0.02618               1
        0.02652          0.4692          0.1753        0.001284         0.02652               1
        0.02686           0.711          0.1537        0.001298         0.02686               1
         0.0272          0.6401          0.1641        0.001312          0.0272               1
        0.02754          0.5475          0.1743        0.001326         0.02755               1
        0.02788          0.2899          0.1506         0.00134         0.02789               1
        0.02804           0.645        0.009712        0.004752         0.02841               1
        0.02823          0.7417          0.1798        0.001355         0.02823               1
        0.02857          0.6807          0.1454        0.001369         0.02857               1
        0.02891          0.7999          0.1656        0.001383         0.02891               1
        0.02925          0.6414          0.1616        0.001397         0.02926               1
        0.02959          0.6443          0.1578        0.001411          0.0296               1
        0.02994          0.4755          0.1504        0.001425         0.02994               1
        0.03028          0.3491          0.1616         0.00144         0.03028               1
        0.03062          0.5336          0.1546        0.001454         0.03062               1
        0.03096          0.6245          0.1529        0.001468         0.03097               1
         0.0313          0.4821          0.1438        0.001482         0.03131               1
        0.03164          0.8619           0.171        0.001497         0.03165               1
        0.03178          0.5684        0.007291        0.004792         0.03211               1
        0.03199          0.5389          0.1615        0.001511         0.03199               1
        0.03233          0.5268          0.1702        0.001525         0.03233               1
        0.03267          0.5705            0.17         0.00154         0.03267               1
        0.03301          0.4937          0.1803        0.001554         0.03302               1
        0.03335           0.524           0.147        0.001568         0.03336               1
         0.0337          0.7502          0.1852        0.001583          0.0337               1
        0.03404          0.3775          0.1653        0.001597         0.03404               1
        0.03438          0.3588          0.1818        0.001612         0.03438               1
        0.03472          0.7559          0.1718        0.001626         0.03472               1
        0.03506          0.4184          0.1625        0.001641         0.03507               1
         0.0354           0.371           0.164        0.001655         0.03541               1
        0.03552          0.5247        0.005203        0.004839         0.03581               1
        0.03575          0.4133          0.1759         0.00167         0.03575               1
        0.03609          0.5529           0.168        0.001684         0.03609               1
        0.03643          0.6407          0.1545        0.001699         0.03643               1
        0.03677           0.698           0.154        0.001713         0.03678               1
        0.03711          0.5127          0.1592        0.001728         0.03712               1
        0.03746          0.3459          0.1688        0.001742         0.03746               1
         0.0378          0.3543          0.1593        0.001757          0.0378               1
        0.03814           0.795          0.2059        0.001771         0.03814               1
        0.03848          0.5243          0.1978        0.001786         0.03848               1
        0.03925          0.5005        0.005417        0.004892         0.03951               1
        0.04298          0.4836        0.004947        0.004951         0.04322               1
        0.04672          0.4651        0.003606        0.005016         0.04694               1
        0.05045          0.4584        0.004283        0.005085         0.05065               1
        0.05418          0.4524        0.004747        0.005159         0.05437               1
         0.0579          0.4494        0.004113        0.005237         0.05808               1
        0.06163          0.4421        0.003947        0.005319          0.0618               1
        0.06536          0.4429        0.004277        0.005405         0.06551               1
        0.06908           0.437        0.004449        0.005495         0.06923               1
         0.0728          0.4379        0.004201        0.005588         0.07294               1
        0.07652          0.4295         0.00427        0.005685         0.07665               1
        0.08023          0.4329        0.003608        0.005784         0.08036               1
        0.08395          0.4329        0.004083        0.005887         0.08407               1
        0.08766          0.4386        0.004446        0.005992         0.08778               1
        0.09137          0.4341        0.003849          0.0061         0.09148               1
        0.09508          0.4243         0.00415         0.00621         0.09518               1
        0.09878          0.4302        0.003577        0.006322         0.09888               1
         0.1025          0.4337        0.003385        0.006437          0.1026               1
         0.1062          0.4297        0.003764        0.006554          0.1063               1
         0.1099          0.4252        0.003596        0.006672            0.11               1
         0.1136          0.4338        0.003811        0.006793          0.1137               1
         0.1173          0.4313        0.003835        0.006915          0.1173               1
         0.1209          0.4254        0.003378        0.007038           0.121               1
         0.1246          0.4303        0.003735        0.007164          0.1247               1
         0.1283          0.4317        0.003496         0.00729          0.1284               1
          0.132          0.4324        0.003126        0.007418          0.1321               1
         0.1357          0.4284        0.003759        0.007547          0.1357               1
         0.1393          0.4324        0.003187        0.007677          0.1394               1
          0.143          0.4306        0.002868        0.007808          0.1431               1
         0.1466          0.4311          0.0033        0.007941          0.1467               1
         0.1503          0.4285        0.002944        0.008074          0.1504               1
          0.154           0.436        0.002858        0.008208           0.154               1
         0.1576          0.4455        0.003166        0.008343          0.1577               1
         0.1612          0.4314        0.003019        0.008479          0.1613               1
         0.1649          0.4363        0.002944        0.008615          0.1649               1
         0.1685          0.4248        0.003106        0.008752          0.1686               1
         0.1721          0.4369        0.003173         0.00889          0.1722               1
         0.1758          0.4307        0.002968        0.009029          0.1758               1
         0.1794          0.4258        0.003142        0.009167          0.1794               1
          0.183          0.4281        0.003068        0.009307          0.1831               1
         0.1866          0.4215        0.003107        0.009447          0.1867               1
         0.1902          0.4156        0.003317        0.009587          0.1903               1
         0.1938           0.411        0.003089        0.009728          0.1939               1
         0.1974          0.4115        0.002878        0.009869          0.1975               1
          0.201          0.4013        0.003412         0.01001          0.2011               1
         0.2046           0.394         0.00292         0.01015          0.2046               1
         0.2082          0.3819        0.002975         0.01029          0.2082               1
         0.2117          0.3751        0.002929         0.01044          0.2118               1
         0.2153          0.3648        0.002912         0.01058          0.2154               1
         0.2189          0.3516        0.002706         0.01072          0.2189               1
         0.2224           0.344        0.002889         0.01086          0.2225               1
          0.226          0.3328        0.003036         0.01101           0.226               1
         0.2295           0.323        0.003229         0.01115          0.2296               1
         0.2331          0.3127        0.002634         0.01129          0.2331               1
         0.2366          0.3008        0.002952         0.01144          0.2366               1
         0.2401          0.2886        0.003052         0.01158          0.2402               1
         0.2436          0.2814        0.003069         0.01172          0.2437               1
         0.2472            0.27        0.003024         0.01187          0.2472               1
         0.2507          0.2548        0.003064         0.01201          0.2507               1
         0.2542          0.2405        0.002947         0.01216          0.2542               1
         0.2577          0.2253        0.002475          0.0123          0.2577               1
         0.2611          0.2196        0.002599         0.01244          0.2612               1
         0.2646          0.2044        0.002637         0.01259          0.2647               1
         0.2681          0.1929        0.002841         0.01273          0.2681               1
         0.2716          0.1787        0.002479         0.01287          0.2716               1
          0.275            0.17        0.002367         0.01302          0.2751               1
         0.2785          0.1551        0.002562         0.01316          0.2785               1
         0.2819          0.1468        0.002375         0.01331          0.2819               1
         0.2854          0.1313        0.002393         0.01345          0.2854               1
         0.2888          0.1197        0.002137         0.01359          0.2888               1
         0.2922          0.1105        0.001807         0.01373          0.2922               1
         0.2956          0.1034        0.001951         0.01388          0.2957               1
          0.299         0.08791        0.002067         0.01402          0.2991               1
         0.3024         0.07966         0.00201         0.01416          0.3025               1
         0.3058         0.07101        0.001668         0.01431          0.3059               1
         0.3092         0.06061        0.001537         0.01445          0.3093               1
         0.3126         0.05181        0.001408         0.01459          0.3126               1
          0.316         0.04499        0.001636         0.01473           0.316               1
         0.3193          0.0378        0.001647         0.01487          0.3194               1
         0.3227         0.03515        0.001288         0.01502          0.3227               1
          0.326         0.02693        0.001158         0.01516          0.3261               1
         0.3294          0.0251        0.001024          0.0153          0.3294               1
         0.3327         0.02123        0.001104         0.01544          0.3327               1
          0.336         0.01798       0.0009485         0.01558          0.3361               1
         0.3394         0.01532       0.0009226         0.01572          0.3394               1
         0.3427         0.01396        0.001025         0.01586          0.3427               1
          0.346         0.01413        0.001006           0.016           0.346               1
         0.3493         0.01244       0.0009293         0.01614          0.3493               1
         0.3525         0.01324       0.0008705         0.01628          0.3526               1
         0.3558         0.01334        0.001005         0.01642          0.3559               1
         0.3591         0.01293       0.0008123         0.01656          0.3591               1
         0.3624         0.01199       0.0009763          0.0167          0.3624               1
         0.3656         0.01319       0.0009017         0.01684          0.3656               1
