FILE CREATED: Fri, Jun 29, 2007 
NSORT-ed   Jun07125.ABS 	  +  Jun07127.ABS	  + none
normalized to   Jun07127.ABS
multiplicative factor 1-2 =   0.90945079	 multiplicative factor 2-3 =            1
The 6 columns are | Q (1/A) | I(Q) (1/cm) | std. dev. I(Q) (1/cm) | sigmaQ | meanQ | ShadowFactor|
       0.002224            3986           129.5       0.0005223        0.002283          0.9972
       0.002567            2376           70.96       0.0005246        0.002617               1
       0.002909            1496            35.4       0.0005271        0.002953               1
       0.003251            1029           19.85       0.0005304        0.003291               1
       0.003593           745.8           12.29       0.0005342        0.003629               1
       0.003936           572.1           9.038       0.0005386        0.003968               1
       0.004278           436.4           6.971       0.0005434        0.004308               1
        0.00462           346.9           5.061       0.0005487        0.004648               1
       0.004962             283           4.364       0.0005544        0.004988               1
       0.005304           232.8           3.652       0.0005605        0.005329               1
       0.005647           195.1           3.088        0.000567        0.005669               1
       0.005989           168.3           2.621       0.0005738         0.00601               1
       0.006331           142.7           2.276       0.0005809        0.006351               1
       0.006673           125.3           2.201       0.0005884        0.006692               1
       0.007015           111.9            1.88       0.0005962        0.007034               1
       0.007358           100.1           1.722       0.0006042        0.007375               1
         0.0077           85.28           1.592       0.0006126        0.007717               1
       0.008042           78.02           1.451       0.0006212        0.008058               1
       0.008384           68.51           1.446         0.00063          0.0084               1
       0.008726            63.1           1.216       0.0006391        0.008741               1
       0.009069           54.88            1.23       0.0006485        0.009083               1
       0.009411           51.41           1.207        0.000658        0.009424               1
       0.009753           47.96           0.934       0.0006678        0.009766               1
         0.0101           44.06           1.053       0.0006778         0.01011               1
        0.01044           38.64          0.8977        0.000688         0.01045               1
        0.01078           34.39          0.9413       0.0006983         0.01079               1
        0.01112           32.23          0.8357       0.0007088         0.01113               1
        0.01146           31.12          0.8412       0.0007196         0.01148               1
        0.01181           30.03          0.7222       0.0007304         0.01182               1
        0.01215           26.32          0.7524       0.0007414         0.01216               1
        0.01249           24.07          0.7341       0.0007526          0.0125               1
        0.01283           23.58          0.6714       0.0007639         0.01284               1
        0.01317           23.15          0.7318       0.0007753         0.01318               1
        0.01352           20.95          0.6074       0.0007869         0.01353               1
        0.01386           20.14          0.5942       0.0007986         0.01387               1
         0.0142           19.34          0.6135       0.0008104         0.01421               1
        0.01454           17.55          0.5027       0.0008223         0.01455               1
        0.01489              17          0.5872       0.0008344         0.01489               1
        0.01523           14.95          0.5362       0.0008465         0.01524               1
        0.01557           14.78          0.4514       0.0008587         0.01558               1
        0.01591           13.91          0.5146       0.0008711         0.01592               1
        0.01625           11.94          0.4302       0.0008835         0.01626               1
         0.0166           13.12          0.4887        0.000896          0.0166               1
        0.01694            11.3          0.4725       0.0009086         0.01695               1
        0.01728           11.49          0.4065       0.0009212         0.01729               1
        0.01762           11.13          0.4427        0.000934         0.01763               1
        0.01796           10.39          0.4136       0.0009468         0.01797               1
        0.01831           10.38          0.4058       0.0009597         0.01831               1
        0.01865           9.904          0.3737       0.0009726         0.01866               1
        0.01899           9.677          0.3812       0.0009856           0.019               1
        0.01933           8.976          0.3742       0.0009987         0.01934               1
        0.01968           9.052           0.351        0.001012         0.01968               1
        0.02002           8.457          0.3722        0.001025         0.02002               1
        0.02036           8.482          0.3353        0.001038         0.02037               1
         0.0207            7.79          0.3722        0.001052         0.02071               1
        0.02104           8.157          0.3851        0.001065         0.02105               1
        0.02139           7.279           0.367        0.001078         0.02139               1
        0.02173           7.126          0.3538        0.001092         0.02173               1
        0.02207           7.242          0.3663        0.001105         0.02208               1
        0.02241           6.818          0.4096        0.001119         0.02242               1
        0.02275           6.505          0.3077        0.001132         0.02276               1
         0.0231           6.383           0.334        0.001146          0.0231               1
        0.02344           6.368          0.3798         0.00116         0.02344               1
        0.02378             5.8          0.3525        0.001173         0.02379               1
        0.02412           5.454          0.3374        0.001187         0.02413               1
        0.02446           6.113          0.3713        0.001201         0.02447               1
        0.02481           5.807          0.3351        0.001215         0.02481               1
        0.02515           5.099          0.3516        0.001229         0.02515               1
        0.02549           5.025          0.3196        0.001242         0.02549               1
        0.02583           4.835           0.321        0.001256         0.02584               1
        0.02617           4.988           0.291         0.00127         0.02618               1
        0.02652           4.887          0.3638        0.001284         0.02652               1
        0.02686           5.199          0.3601        0.001298         0.02686               1
         0.0272           4.804          0.3924        0.001312          0.0272               1
        0.02754           4.054          0.3078        0.001326         0.02755               1
        0.02788           4.339          0.3295         0.00134         0.02789               1
        0.02804           4.504         0.05663        0.004752         0.02841               1
        0.02823           3.927          0.3177        0.001355         0.02823               1
        0.02857           4.288          0.3009        0.001369         0.02857               1
        0.02891           4.221          0.3107        0.001383         0.02891               1
        0.02925           3.967          0.3049        0.001397         0.02926               1
        0.02959           3.834           0.314        0.001411          0.0296               1
        0.02994           3.838          0.3237        0.001425         0.02994               1
        0.03028           3.846          0.2921         0.00144         0.03028               1
        0.03062           3.685           0.309        0.001454         0.03062               1
        0.03096           3.886          0.3092        0.001468         0.03097               1
         0.0313           3.614          0.3006        0.001482         0.03131               1
        0.03164           3.262           0.257        0.001497         0.03165               1
        0.03178           3.603         0.05018        0.004792         0.03211               1
        0.03199           3.394          0.3072        0.001511         0.03199               1
        0.03233           3.226          0.2782        0.001525         0.03233               1
        0.03267           3.581          0.3195         0.00154         0.03267               1
        0.03301           2.752          0.2689        0.001554         0.03302               1
        0.03335           3.641          0.3006        0.001568         0.03336               1
         0.0337            3.35          0.3037        0.001583          0.0337               1
        0.03404           2.667          0.2852        0.001597         0.03404               1
        0.03438           2.557          0.2849        0.001612         0.03438               1
        0.03472           2.818          0.2547        0.001626         0.03472               1
        0.03506           3.009          0.2998        0.001641         0.03507               1
         0.0354           2.057          0.2737        0.001655         0.03541               1
        0.03552           2.868         0.03727        0.004839         0.03581               1
        0.03575           2.415           0.282         0.00167         0.03575               1
        0.03609           2.307          0.2567        0.001684         0.03609               1
        0.03643           2.615          0.2394        0.001699         0.03643               1
        0.03677           2.657          0.2667        0.001713         0.03678               1
        0.03711           2.502          0.2506        0.001728         0.03712               1
        0.03746           2.776          0.2707        0.001742         0.03746               1
         0.0378           2.194          0.2432        0.001757          0.0378               1
        0.03814           2.285          0.2822        0.001771         0.03814               1
        0.03848           2.556          0.3134        0.001786         0.03848               1
        0.03925           2.309         0.02672        0.004892         0.03951               1
        0.04298           1.914         0.01943        0.004951         0.04322               1
        0.04672           1.606         0.01554        0.005016         0.04694               1
        0.05045           1.349         0.01281        0.005085         0.05065               1
        0.05418           1.172         0.01054        0.005159         0.05437               1
         0.0579           1.018        0.009449        0.005237         0.05808               1
        0.06163          0.9071        0.008235        0.005319          0.0618               1
        0.06536          0.8162         0.00726        0.005405         0.06551               1
        0.06908          0.7387        0.005872        0.005495         0.06923               1
         0.0728          0.6928         0.00547        0.005588         0.07294               1
        0.07652          0.6521        0.004619        0.005685         0.07665               1
        0.08023          0.6061        0.005628        0.005784         0.08036               1
        0.08395          0.5716        0.004858        0.005887         0.08407               1
        0.08766          0.5594        0.004901        0.005992         0.08778               1
        0.09137          0.5262        0.005024          0.0061         0.09148               1
        0.09508          0.5159        0.004133         0.00621         0.09518               1
        0.09878          0.4979        0.004122        0.006322         0.09888               1
         0.1025          0.4944        0.004231        0.006437          0.1026               1
         0.1062          0.4758        0.003932        0.006554          0.1063               1
         0.1099          0.4683        0.003747        0.006672            0.11               1
         0.1136          0.4615        0.004006        0.006793          0.1137               1
         0.1173          0.4629        0.003739        0.006915          0.1173               1
         0.1209          0.4469        0.004121        0.007038           0.121               1
         0.1246            0.45        0.004039        0.007164          0.1247               1
         0.1283          0.4448        0.003533         0.00729          0.1284               1
          0.132           0.428        0.003296        0.007418          0.1321               1
         0.1357          0.4385        0.002772        0.007547          0.1357               1
         0.1393          0.4319        0.003344        0.007677          0.1394               1
          0.143            0.43         0.00346        0.007808          0.1431               1
         0.1466          0.4258        0.003363        0.007941          0.1467               1
         0.1503          0.4188        0.003316        0.008074          0.1504               1
          0.154          0.4241        0.003274        0.008208           0.154               1
         0.1576          0.4236        0.002804        0.008343          0.1577               1
         0.1612          0.4192        0.003015        0.008479          0.1613               1
         0.1649          0.4161        0.002966        0.008615          0.1649               1
         0.1685          0.4156        0.003266        0.008752          0.1686               1
         0.1721          0.4162        0.002921         0.00889          0.1722               1
         0.1758          0.4126         0.00301        0.009029          0.1758               1
         0.1794          0.4062        0.003319        0.009167          0.1794               1
          0.183          0.4073         0.00318        0.009307          0.1831               1
         0.1866          0.4028        0.002881        0.009447          0.1867               1
         0.1902          0.3966        0.003147        0.009587          0.1903               1
         0.1938          0.3892        0.003406        0.009728          0.1939               1
         0.1974          0.3905        0.003699        0.009869          0.1975               1
          0.201            0.38        0.003499         0.01001          0.2011               1
         0.2046          0.3743        0.003425         0.01015          0.2046               1
         0.2082          0.3616        0.003296         0.01029          0.2082               1
         0.2117          0.3559        0.003724         0.01044          0.2118               1
         0.2153          0.3462        0.003634         0.01058          0.2154               1
         0.2189          0.3346        0.003318         0.01072          0.2189               1
         0.2224          0.3201        0.003457         0.01086          0.2225               1
          0.226          0.3159        0.003761         0.01101           0.226               1
         0.2295          0.3088         0.00364         0.01115          0.2296               1
         0.2331          0.2995        0.003653         0.01129          0.2331               1
         0.2366          0.2882        0.003617         0.01144          0.2366               1
         0.2401          0.2772        0.003719         0.01158          0.2402               1
         0.2436          0.2648        0.003547         0.01172          0.2437               1
         0.2472          0.2524        0.003421         0.01187          0.2472               1
         0.2507          0.2393        0.002977         0.01201          0.2507               1
         0.2542          0.2351        0.003544         0.01216          0.2542               1
         0.2577          0.2199        0.003212          0.0123          0.2577               1
         0.2611          0.2079        0.002865         0.01244          0.2612               1
         0.2646          0.1967        0.002934         0.01259          0.2647               1
         0.2681          0.1899        0.003082         0.01273          0.2681               1
         0.2716          0.1774        0.003119         0.01287          0.2716               1
          0.275          0.1608        0.002984         0.01302          0.2751               1
         0.2785          0.1523        0.002891         0.01316          0.2785               1
         0.2819          0.1408        0.003056         0.01331          0.2819               1
         0.2854          0.1286        0.002459         0.01345          0.2854               1
         0.2888          0.1225        0.002433         0.01359          0.2888               1
         0.2922          0.1092        0.002391         0.01373          0.2922               1
         0.2956          0.1025        0.002301         0.01388          0.2957               1
          0.299         0.08994        0.002255         0.01402          0.2991               1
         0.3024         0.08224        0.002073         0.01416          0.3025               1
         0.3058         0.07198        0.002116         0.01431          0.3059               1
         0.3092         0.06085        0.001946         0.01445          0.3093               1
         0.3126         0.05333        0.001812         0.01459          0.3126               1
          0.316         0.04701        0.001661         0.01473           0.316               1
         0.3193         0.03968        0.001669         0.01487          0.3194               1
         0.3227         0.03684        0.001467         0.01502          0.3227               1
          0.326         0.02944        0.001295         0.01516          0.3261               1
         0.3294         0.02653        0.001233          0.0153          0.3294               1
         0.3327         0.02193        0.001113         0.01544          0.3327               1
          0.336         0.01885        0.001077         0.01558          0.3361               1
         0.3394         0.01577        0.001025         0.01572          0.3394               1
         0.3427         0.01522       0.0009417         0.01586          0.3427               1
          0.346         0.01407        0.001067           0.016           0.346               1
         0.3493         0.01504        0.001098         0.01614          0.3493               1
         0.3525         0.01443       0.0009922         0.01628          0.3526               1
         0.3558         0.01386       0.0009683         0.01642          0.3559               1
         0.3591         0.01365        0.001005         0.01656          0.3591               1
         0.3624         0.01242       0.0009186          0.0167          0.3624               1
         0.3656         0.01202       0.0008505         0.01684          0.3656               1
