FILE CREATED: Tue, Jun 26, 2007 
NSORT-ed   Jun07086.ABS 	  +  Jun07088.ABS	  + none
normalized to   Jun07086.ABS
multiplicative factor 1-2 =   0.98138292	 multiplicative factor 2-3 =            1
The 6 columns are | Q (1/A) | I(Q) (1/cm) | std. dev. I(Q) (1/cm) | sigmaQ | meanQ | ShadowFactor|
       0.002224            1566           49.59       0.0005223        0.002283          0.9972
       0.002567           951.4            28.1       0.0005246        0.002617               1
       0.002909           627.6           14.74       0.0005271        0.002953               1
       0.003251           437.7            9.27       0.0005304        0.003291               1
       0.003593           322.6           6.275       0.0005342        0.003629               1
       0.003936           247.1           4.675       0.0005386        0.003968               1
       0.004278             195            3.86       0.0005434        0.004308               1
        0.00462           153.8           3.329       0.0005487        0.004648               1
       0.004962           124.4           2.464       0.0005544        0.004988               1
       0.005304           105.9           2.201       0.0005605        0.005329               1
       0.005647            88.2           2.199        0.000567        0.005669               1
       0.005989           75.66           1.886       0.0005738         0.00601               1
       0.006331           64.73             1.7       0.0005809        0.006351               1
       0.006673           54.37            1.53       0.0005884        0.006692               1
       0.007015           47.51           1.203       0.0005962        0.007034               1
       0.007358           41.78           1.264       0.0006042        0.007375               1
         0.0077           38.37           1.174       0.0006126        0.007717               1
       0.008042           33.44          0.8849       0.0006212        0.008058               1
       0.008384           27.43           1.011         0.00063          0.0084               1
       0.008726              26          0.8966       0.0006391        0.008741               1
       0.009069           24.66          0.9739       0.0006485        0.009083               1
       0.009411           21.62          0.8447        0.000658        0.009424               1
       0.009753           19.65          0.7395       0.0006678        0.009766               1
         0.0101           17.27          0.6886       0.0006778         0.01011               1
        0.01044           15.74          0.6126        0.000688         0.01045               1
        0.01078           15.57          0.7043       0.0006983         0.01079               1
        0.01112           13.36          0.5982       0.0007088         0.01113               1
        0.01146           12.25          0.6002       0.0007196         0.01148               1
        0.01181           10.58          0.4876       0.0007304         0.01182               1
        0.01215           10.91          0.5114       0.0007414         0.01216               1
        0.01249           10.65          0.4745       0.0007526          0.0125               1
        0.01283           9.007          0.4458       0.0007639         0.01284               1
        0.01317           7.739          0.3815       0.0007753         0.01318               1
        0.01352           7.941          0.4112       0.0007869         0.01353               1
        0.01386           6.644          0.4164       0.0007986         0.01387               1
         0.0142           6.179          0.3854       0.0008104         0.01421               1
        0.01454           6.062          0.3944       0.0008223         0.01455               1
        0.01489           6.585          0.3439       0.0008344         0.01489               1
        0.01523           6.149          0.3554       0.0008465         0.01524               1
        0.01557           4.697          0.3181       0.0008587         0.01558               1
        0.01591           5.024          0.3382       0.0008711         0.01592               1
        0.01625           4.416          0.3356       0.0008835         0.01626               1
         0.0166            4.29          0.3061        0.000896          0.0166               1
        0.01694           4.062          0.2826       0.0009086         0.01695               1
        0.01728           3.922          0.2909       0.0009212         0.01729               1
        0.01762           3.257           0.313        0.000934         0.01763               1
        0.01796           3.058          0.2577       0.0009468         0.01797               1
        0.01831           3.213          0.2593       0.0009597         0.01831               1
        0.01865           3.288          0.2524       0.0009726         0.01866               1
        0.01899           3.074          0.2693       0.0009856           0.019               1
        0.01933           2.538           0.223       0.0009987         0.01934               1
        0.01968           2.367          0.2261        0.001012         0.01968               1
        0.02002           2.202          0.2302        0.001025         0.02002               1
        0.02036           2.346           0.228        0.001038         0.02037               1
         0.0207            2.46          0.2478        0.001052         0.02071               1
        0.02104           2.278          0.2581        0.001065         0.02105               1
        0.02139           1.999          0.2182        0.001078         0.02139               1
        0.02173           2.249          0.2573        0.001092         0.02173               1
        0.02207           2.404          0.2412        0.001105         0.02208               1
        0.02241           1.555          0.2242        0.001119         0.02242               1
        0.02275           2.158          0.2518        0.001132         0.02276               1
         0.0231           1.607          0.2349        0.001146          0.0231               1
        0.02344           1.599          0.2569         0.00116         0.02344               1
        0.02378           1.665           0.239        0.001173         0.02379               1
        0.02412           1.682          0.2446        0.001187         0.02413               1
        0.02446           1.605          0.2526        0.001201         0.02447               1
        0.02481           1.717          0.2131        0.001215         0.02481               1
        0.02515           1.522          0.2513        0.001229         0.02515               1
        0.02549           1.335           0.218        0.001242         0.02549               1
        0.02583           1.656          0.2767        0.001256         0.02584               1
        0.02617           1.256           0.231         0.00127         0.02618               1
        0.02652           1.196          0.2254        0.001284         0.02652               1
        0.02686           1.197          0.1988        0.001298         0.02686               1
         0.0272           1.324          0.2198        0.001312          0.0272               1
        0.02754           1.768          0.2276        0.001326         0.02755               1
        0.02788           1.364           0.241         0.00134         0.02789               1
        0.02804           1.197         0.01766        0.004752         0.02841               1
        0.02823          0.9853          0.2105        0.001355         0.02823               1
        0.02857           1.194          0.2235        0.001369         0.02857               1
        0.02891           1.019           0.197        0.001383         0.02891               1
        0.02925           1.543           0.252        0.001397         0.02926               1
        0.02959          0.8682          0.2174        0.001411          0.0296               1
        0.02994           1.392          0.2209        0.001425         0.02994               1
        0.03178           1.003         0.01127        0.004792         0.03211               1
        0.03552          0.8683        0.009306        0.004839         0.03581               1
        0.03925          0.7695        0.008279        0.004892         0.03951               1
        0.04298          0.7077        0.006311        0.004951         0.04322               1
        0.04672           0.667        0.006108        0.005016         0.04694               1
        0.05045          0.6342        0.005622        0.005085         0.05065               1
        0.05418           0.606        0.005743        0.005159         0.05437               1
         0.0579          0.5895        0.004594        0.005237         0.05808               1
        0.06163          0.5768        0.004845        0.005319          0.0618               1
        0.06536          0.5629        0.004659        0.005405         0.06551               1
        0.06908           0.554        0.005099        0.005495         0.06923               1
         0.0728          0.5496         0.00496        0.005588         0.07294               1
        0.07652          0.5403        0.004537        0.005685         0.07665               1
        0.08023          0.5301        0.004596        0.005784         0.08036               1
        0.08395           0.522        0.004206        0.005887         0.08407               1
        0.08766          0.5231        0.005109        0.005992         0.08778               1
        0.09137          0.5148        0.004425          0.0061         0.09148               1
        0.09508          0.5079         0.00438         0.00621         0.09518               1
        0.09878          0.5031        0.004467        0.006322         0.09888               1
         0.1025          0.4995        0.004029        0.006437          0.1026               1
         0.1062          0.4896        0.004211        0.006554          0.1063               1
         0.1099          0.4932        0.003945        0.006672            0.11               1
         0.1136          0.4921        0.004286        0.006793          0.1137               1
         0.1173          0.4881        0.004236        0.006915          0.1173               1
         0.1209           0.477        0.003606        0.007038           0.121               1
         0.1246          0.4791        0.003755        0.007164          0.1247               1
         0.1283          0.4803        0.003494         0.00729          0.1284               1
          0.132          0.4741        0.003677        0.007418          0.1321               1
         0.1357          0.4817        0.003833        0.007547          0.1357               1
         0.1393          0.4653         0.00346        0.007677          0.1394               1
          0.143          0.4724        0.003515        0.007808          0.1431               1
         0.1466          0.4648        0.003186        0.007941          0.1467               1
         0.1503          0.4659        0.003798        0.008074          0.1504               1
          0.154          0.4637        0.003351        0.008208           0.154               1
         0.1576          0.4732        0.003361        0.008343          0.1577               1
         0.1612          0.4637        0.003651        0.008479          0.1613               1
         0.1649          0.4562          0.0034        0.008615          0.1649               1
         0.1685          0.4601        0.003383        0.008752          0.1686               1
         0.1721          0.4523        0.003166         0.00889          0.1722               1
         0.1758          0.4461        0.003346        0.009029          0.1758               1
         0.1794          0.4497        0.003297        0.009167          0.1794               1
          0.183          0.4434        0.003458        0.009307          0.1831               1
         0.1866          0.4363        0.003419        0.009447          0.1867               1
         0.1902          0.4333        0.003259        0.009587          0.1903               1
         0.1938          0.4223        0.003202        0.009728          0.1939               1
         0.1974          0.4219        0.003694        0.009869          0.1975               1
          0.201           0.412        0.003765         0.01001          0.2011               1
         0.2046          0.4028        0.003797         0.01015          0.2046               1
         0.2082          0.3903        0.003762         0.01029          0.2082               1
         0.2117          0.3827        0.003724         0.01044          0.2118               1
         0.2153          0.3649        0.003586         0.01058          0.2154               1
         0.2189          0.3632        0.003713         0.01072          0.2189               1
         0.2224          0.3517        0.003695         0.01086          0.2225               1
          0.226          0.3414        0.003778         0.01101           0.226               1
         0.2295          0.3352        0.003972         0.01115          0.2296               1
         0.2331          0.3241         0.00378         0.01129          0.2331               1
         0.2366          0.3155        0.003491         0.01144          0.2366               1
         0.2401          0.2964        0.003597         0.01158          0.2402               1
         0.2436           0.285        0.003815         0.01172          0.2437               1
         0.2472           0.274        0.003791         0.01187          0.2472               1
         0.2507          0.2624        0.003444         0.01201          0.2507               1
         0.2542          0.2502        0.003372         0.01216          0.2542               1
         0.2577           0.236        0.003314          0.0123          0.2577               1
         0.2611          0.2276        0.003218         0.01244          0.2612               1
         0.2646          0.2087        0.003176         0.01259          0.2647               1
         0.2681          0.1969        0.002952         0.01273          0.2681               1
         0.2716          0.1913        0.002956         0.01287          0.2716               1
          0.275          0.1709        0.002859         0.01302          0.2751               1
         0.2785          0.1657        0.003201         0.01316          0.2785               1
         0.2819          0.1488        0.003105         0.01331          0.2819               1
         0.2854          0.1387        0.002553         0.01345          0.2854               1
         0.2888          0.1294        0.002572         0.01359          0.2888               1
         0.2922          0.1169        0.002589         0.01373          0.2922               1
         0.2956          0.1085        0.002654         0.01388          0.2957               1
          0.299         0.09678        0.002198         0.01402          0.2991               1
         0.3024         0.08961        0.002308         0.01416          0.3025               1
         0.3058         0.07752        0.002126         0.01431          0.3059               1
         0.3092         0.06824        0.001913         0.01445          0.3093               1
         0.3126         0.05893        0.001725         0.01459          0.3126               1
          0.316         0.05079        0.001719         0.01473           0.316               1
         0.3193         0.04354        0.001633         0.01487          0.3194               1
         0.3227         0.03682         0.00154         0.01502          0.3227               1
          0.326         0.03514        0.001496         0.01516          0.3261               1
         0.3294         0.02543        0.001231          0.0153          0.3294               1
         0.3327         0.02467        0.001245         0.01544          0.3327               1
          0.336         0.02116        0.001109         0.01558          0.3361               1
         0.3394         0.01883         0.00114         0.01572          0.3394               1
         0.3427         0.01746        0.001094         0.01586          0.3427               1
          0.346         0.01532        0.001039           0.016           0.346               1
         0.3493         0.01685        0.001072         0.01614          0.3493               1
         0.3525         0.01606        0.001033         0.01628          0.3526               1
         0.3558         0.01358        0.001071         0.01642          0.3559               1
         0.3591         0.01489       0.0009768         0.01656          0.3591               1
         0.3624         0.01301        0.001021          0.0167          0.3624               1
         0.3656         0.01595        0.001024         0.01684          0.3656               1
         0.3688         0.01336        0.001005         0.01698          0.3689               1
         0.3721         0.01246        0.000999         0.01712          0.3721               1
         0.3753         0.01233       0.0008626         0.01725          0.3753               1
         0.3785         0.01351       0.0009251         0.01739          0.3786               1
         0.3817         0.01178        0.001021         0.01753          0.3818               1
         0.3849         0.01312       0.0009532         0.01767           0.385               1
         0.3881         0.01288        0.001086          0.0178          0.3882               1
         0.3913         0.01102       0.0009195         0.01794          0.3913               1
         0.3945         0.01225        0.001272         0.01808          0.3945               1
         0.3977         0.01173        0.001187         0.01821          0.3977               1
         0.4008         0.01127        0.001364         0.01835          0.4008               1
          0.404         0.01081        0.001282         0.01848           0.404               1
         0.4071        0.007265        0.001454         0.01862          0.4071               1
