FILE CREATED: Tue, Jun 26, 2007 
NSORT-ed   Jun07161.ABS 	  +  Jun07162.ABS	  + none
normalized to   Jun07162.ABS
multiplicative factor 1-2 =    0.9706046	 multiplicative factor 2-3 =            1
The 6 columns are | Q (1/A) | I(Q) (1/cm) | std. dev. I(Q) (1/cm) | sigmaQ | meanQ | ShadowFactor|
       0.002224            2194           68.87       0.0005223        0.002283          0.9972
       0.002567            1375            38.4       0.0005246        0.002617               1
       0.002909           914.6           21.05       0.0005271        0.002953               1
       0.003251           646.5           12.19       0.0005304        0.003291               1
       0.003593           492.2           7.806       0.0005342        0.003629               1
       0.003936           382.5           6.553       0.0005386        0.003968               1
       0.004278           306.2           4.662       0.0005434        0.004308               1
        0.00462           250.3            3.62       0.0005487        0.004648               1
       0.004962           208.8           3.482       0.0005544        0.004988               1
       0.005304           173.4           2.934       0.0005605        0.005329               1
       0.005647           152.8           2.759        0.000567        0.005669               1
       0.005989             128           2.496       0.0005738         0.00601               1
       0.006331           110.8            2.04       0.0005809        0.006351               1
       0.006673           98.52           2.052       0.0005884        0.006692               1
       0.007015           86.25           1.642       0.0005962        0.007034               1
       0.007358           76.21           1.496       0.0006042        0.007375               1
         0.0077           68.54           1.461       0.0006126        0.007717               1
       0.008042           57.91           1.455       0.0006212        0.008058               1
       0.008384           51.71           1.233         0.00063          0.0084               1
       0.008726           46.92           1.139       0.0006391        0.008741               1
       0.009069           42.11           1.195       0.0006485        0.009083               1
       0.009411           37.64          0.9067        0.000658        0.009424               1
       0.009753           33.69          0.9725       0.0006678        0.009766               1
         0.0101           30.44          0.8603       0.0006778         0.01011               1
        0.01044           29.79           0.847        0.000688         0.01045               1
        0.01078           26.33          0.8878       0.0006983         0.01079               1
        0.01112           25.39          0.8129       0.0007088         0.01113               1
        0.01146           22.14          0.6644       0.0007196         0.01148               1
        0.01181           19.65          0.6676       0.0007304         0.01182               1
        0.01215              17          0.6073       0.0007414         0.01216               1
        0.01249           18.33          0.6375       0.0007526          0.0125               1
        0.01283           16.57          0.5387       0.0007639         0.01284               1
        0.01317           14.03           0.563       0.0007753         0.01318               1
        0.01352           12.75            0.51       0.0007869         0.01353               1
        0.01386           12.46          0.5039       0.0007986         0.01387               1
         0.0142              11          0.5403       0.0008104         0.01421               1
        0.01454           10.31          0.4491       0.0008223         0.01455               1
        0.01489           10.19          0.4709       0.0008344         0.01489               1
        0.01523           8.945          0.4182       0.0008465         0.01524               1
        0.01557           8.231           0.397       0.0008587         0.01558               1
        0.01591           7.702          0.3729       0.0008711         0.01592               1
        0.01625           6.556          0.3445       0.0008835         0.01626               1
         0.0166            7.38          0.3956        0.000896          0.0166               1
        0.01694           6.923           0.348       0.0009086         0.01695               1
        0.01728           6.254          0.3546       0.0009212         0.01729               1
        0.01762           6.283          0.3564        0.000934         0.01763               1
        0.01796           5.311          0.3019       0.0009468         0.01797               1
        0.01831           5.031          0.3156       0.0009597         0.01831               1
        0.01865           5.118          0.2903       0.0009726         0.01866               1
        0.01899           5.111          0.2872       0.0009856           0.019               1
        0.01933           4.234          0.2804       0.0009987         0.01934               1
        0.01968           3.994          0.2498        0.001012         0.01968               1
        0.02002           4.215          0.2733        0.001025         0.02002               1
        0.02036           3.549          0.2691        0.001038         0.02037               1
         0.0207           3.622          0.2873        0.001052         0.02071               1
        0.02104           4.079          0.2735        0.001065         0.02105               1
        0.02139           3.306          0.2688        0.001078         0.02139               1
        0.02173           3.543           0.298        0.001092         0.02173               1
        0.02207           3.473          0.2816        0.001105         0.02208               1
        0.02241           3.197          0.2821        0.001119         0.02242               1
        0.02275           3.047          0.2459        0.001132         0.02276               1
         0.0231           2.683           0.255        0.001146          0.0231               1
        0.02344           2.571          0.2455         0.00116         0.02344               1
        0.02378           2.848           0.284        0.001173         0.02379               1
        0.02412           2.093          0.2488        0.001187         0.02413               1
        0.02446           2.522           0.292        0.001201         0.02447               1
        0.02481            2.46           0.258        0.001215         0.02481               1
        0.02515           2.027          0.2508        0.001229         0.02515               1
        0.02549           2.916          0.2982        0.001242         0.02549               1
        0.02583           2.207          0.2521        0.001256         0.02584               1
        0.02617           2.179          0.2523         0.00127         0.02618               1
        0.02652           1.706           0.228        0.001284         0.02652               1
        0.02686           2.136          0.2275        0.001298         0.02686               1
         0.0272           2.141          0.2658        0.001312          0.0272               1
        0.02754           1.997          0.2353        0.001326         0.02755               1
        0.02788            1.32          0.2235         0.00134         0.02789               1
        0.02804            1.72         0.02512        0.004752         0.02841               1
        0.02823           1.407          0.2266        0.001355         0.02823               1
        0.02857           1.681           0.224        0.001369         0.02857               1
        0.02891           1.917           0.219        0.001383         0.02891               1
        0.02925           1.457          0.2379        0.001397         0.02926               1
        0.02959           1.559          0.2225        0.001411          0.0296               1
        0.02994           1.279          0.2016        0.001425         0.02994               1
        0.03028           1.649          0.2471         0.00144         0.03028               1
        0.03062            1.44          0.2057        0.001454         0.03062               1
        0.03096           2.001          0.2368        0.001468         0.03097               1
         0.0313            1.53          0.2252        0.001482         0.03131               1
        0.03164           1.612          0.2149        0.001497         0.03165               1
        0.03178           1.341         0.02019        0.004792         0.03211               1
        0.03199            1.21          0.2235        0.001511         0.03199               1
        0.03233            1.54           0.247        0.001525         0.03233               1
        0.03267           1.145          0.2331         0.00154         0.03267               1
        0.03301          0.9225          0.1909        0.001554         0.03302               1
        0.03335           1.194          0.2055        0.001568         0.03336               1
         0.0337           0.904          0.2279        0.001583          0.0337               1
        0.03404           1.354          0.2217        0.001597         0.03404               1
        0.03438          0.9247          0.1985        0.001612         0.03438               1
        0.03472           1.274          0.2119        0.001626         0.03472               1
        0.03506           1.036          0.2024        0.001641         0.03507               1
         0.0354           1.139          0.2085        0.001655         0.03541               1
        0.03552           1.085         0.01312        0.004839         0.03581               1
        0.03575           1.229          0.2295         0.00167         0.03575               1
        0.03609          0.8375          0.1898        0.001684         0.03609               1
        0.03643            1.17          0.2051        0.001699         0.03643               1
        0.03677           1.106          0.1921        0.001713         0.03678               1
        0.03711           1.042          0.1941        0.001728         0.03712               1
        0.03746          0.6078          0.2003        0.001742         0.03746               1
         0.0378          0.7564           0.171        0.001757          0.0378               1
        0.03814            1.41          0.2707        0.001771         0.03814               1
        0.03848           1.218           0.255        0.001786         0.03848               1
        0.03882           0.693           0.234          0.0018         0.03883               1
        0.03916           0.931          0.2782        0.001815         0.03917               1
        0.03925          0.9221        0.008503        0.004892         0.03951               1
        0.03951           1.073          0.3149         0.00183         0.03951               1
        0.03985          0.8306          0.3211        0.001844         0.03985               1
        0.04019           1.139          0.2995        0.001859         0.04019               1
        0.04298          0.8448        0.007221        0.004951         0.04322               1
        0.04672          0.7821        0.006929        0.005016         0.04694               1
        0.05045          0.7337        0.006509        0.005085         0.05065               1
        0.05418          0.7091         0.00654        0.005159         0.05437               1
         0.0579          0.6816        0.005911        0.005237         0.05808               1
        0.06163          0.6617        0.005212        0.005319          0.0618               1
        0.06536          0.6447        0.005179        0.005405         0.06551               1
        0.06908          0.6441         0.00523        0.005495         0.06923               1
         0.0728          0.6324        0.005565        0.005588         0.07294               1
        0.07652          0.6175        0.004706        0.005685         0.07665               1
        0.08023          0.6137        0.004613        0.005784         0.08036               1
        0.08395          0.6188         0.00465        0.005887         0.08407               1
        0.08766          0.6114        0.005364        0.005992         0.08778               1
        0.09137           0.609        0.003889          0.0061         0.09148               1
        0.09508          0.6016        0.004591         0.00621         0.09518               1
        0.09878          0.5981        0.005085        0.006322         0.09888               1
         0.1025          0.5993        0.004698        0.006437          0.1026               1
         0.1062          0.5937        0.004238        0.006554          0.1063               1
         0.1099          0.5796        0.004167        0.006672            0.11               1
         0.1136          0.5862        0.004279        0.006793          0.1137               1
         0.1173          0.5863         0.00456        0.006915          0.1173               1
         0.1209          0.5773        0.004241        0.007038           0.121               1
         0.1246          0.5833        0.004569        0.007164          0.1247               1
         0.1283          0.5854        0.004437         0.00729          0.1284               1
          0.132          0.5795        0.004278        0.007418          0.1321               1
         0.1357          0.5799        0.003747        0.007547          0.1357               1
         0.1393          0.5771        0.003977        0.007677          0.1394               1
          0.143          0.5779        0.004017        0.007808          0.1431               1
         0.1466          0.5723        0.003697        0.007941          0.1467               1
         0.1503          0.5808        0.004011        0.008074          0.1504               1
          0.154          0.5711        0.003856        0.008208           0.154               1
         0.1576          0.5726        0.003583        0.008343          0.1577               1
         0.1612          0.5738        0.003765        0.008479          0.1613               1
         0.1649          0.5716        0.003764        0.008615          0.1649               1
         0.1685          0.5635        0.003826        0.008752          0.1686               1
         0.1721          0.5669        0.003613         0.00889          0.1722               1
         0.1758          0.5633        0.003106        0.009029          0.1758               1
         0.1794          0.5598        0.003585        0.009167          0.1794               1
          0.183          0.5645        0.003422        0.009307          0.1831               1
         0.1866           0.548         0.00378        0.009447          0.1867               1
         0.1902          0.5438        0.003548        0.009587          0.1903               1
         0.1938          0.5444        0.003355        0.009728          0.1939               1
         0.1974          0.5314        0.003637        0.009869          0.1975               1
          0.201          0.5232        0.003796         0.01001          0.2011               1
         0.2046          0.5148        0.003408         0.01015          0.2046               1
         0.2082          0.5005        0.003801         0.01029          0.2082               1
         0.2117          0.4951        0.003886         0.01044          0.2118               1
         0.2153          0.4835        0.003896         0.01058          0.2154               1
         0.2189           0.477        0.004025         0.01072          0.2189               1
         0.2224          0.4596        0.003785         0.01086          0.2225               1
          0.226          0.4485        0.004082         0.01101           0.226               1
         0.2295          0.4431        0.004054         0.01115          0.2296               1
         0.2331           0.433        0.004147         0.01129          0.2331               1
         0.2366          0.4134        0.004175         0.01144          0.2366               1
         0.2401          0.4068         0.00454         0.01158          0.2402               1
         0.2436          0.3853        0.004045         0.01172          0.2437               1
         0.2472          0.3792        0.003971         0.01187          0.2472               1
         0.2507          0.3658        0.003592         0.01201          0.2507               1
         0.2542          0.3481        0.004195         0.01216          0.2542               1
         0.2577          0.3389        0.003769          0.0123          0.2577               1
         0.2611          0.3272        0.003756         0.01244          0.2612               1
         0.2646          0.3088        0.003608         0.01259          0.2647               1
         0.2681          0.3006        0.003418         0.01273          0.2681               1
         0.2716          0.2859        0.003443         0.01287          0.2716               1
          0.275          0.2721        0.003549         0.01302          0.2751               1
         0.2785          0.2589        0.003433         0.01316          0.2785               1
         0.2819          0.2477        0.003162         0.01331          0.2819               1
         0.2854          0.2304        0.003033         0.01345          0.2854               1
         0.2888          0.2245        0.003467         0.01359          0.2888               1
         0.2922          0.2069        0.002911         0.01373          0.2922               1
         0.2956          0.2029        0.002959         0.01388          0.2957               1
          0.299          0.1842        0.002868         0.01402          0.2991               1
         0.3024          0.1758        0.002737         0.01416          0.3025               1
         0.3058          0.1619        0.003037         0.01431          0.3059               1
         0.3092          0.1533        0.002713         0.01445          0.3093               1
         0.3126          0.1418        0.002644         0.01459          0.3126               1
          0.316          0.1352        0.002358         0.01473           0.316               1
         0.3193          0.1241        0.002375         0.01487          0.3194               1
         0.3227          0.1198        0.002158         0.01502          0.3227               1
          0.326          0.1105        0.002573         0.01516          0.3261               1
         0.3294          0.1037        0.001978          0.0153          0.3294               1
         0.3327         0.09378        0.001971         0.01544          0.3327               1
          0.336         0.09182        0.002255         0.01558          0.3361               1
         0.3394         0.08387        0.002092         0.01572          0.3394               1
         0.3427         0.08071        0.001725         0.01586          0.3427               1
          0.346         0.07761        0.001626           0.016           0.346               1
         0.3493         0.07044        0.001579         0.01614          0.3493               1
