FILE CREATED: Tue, Jun 26, 2007 
NSORT-ed   Jun07155.ABS 	  +  Jun07153.ABS	  + none
normalized to   Jun07153.ABS
multiplicative factor 1-2 =   0.93425233	 multiplicative factor 2-3 =            1
The 6 columns are | Q (1/A) | I(Q) (1/cm) | std. dev. I(Q) (1/cm) | sigmaQ | meanQ | ShadowFactor|
       0.002224            2950              93       0.0005223        0.002283          0.9972
       0.002567            1831            50.5       0.0005246        0.002617               1
       0.002909            1222           26.79       0.0005271        0.002953               1
       0.003251           880.3           15.75       0.0005304        0.003291               1
       0.003593           657.4           10.02       0.0005342        0.003629               1
       0.003936           518.1           7.552       0.0005386        0.003968               1
       0.004278           421.5            5.83       0.0005434        0.004308               1
        0.00462           349.5           5.278       0.0005487        0.004648               1
       0.004962             292            4.15       0.0005544        0.004988               1
       0.005304           253.5           3.505       0.0005605        0.005329               1
       0.005647             216           2.988        0.000567        0.005669               1
       0.005989           191.5           2.923       0.0005738         0.00601               1
       0.006331           168.3           2.357       0.0005809        0.006351               1
       0.006673             150           2.741       0.0005884        0.006692               1
       0.007015           131.9           1.866       0.0005962        0.007034               1
       0.007358           118.6            1.84       0.0006042        0.007375               1
         0.0077           107.2           1.865       0.0006126        0.007717               1
       0.008042            96.7           1.743       0.0006212        0.008058               1
       0.008384           89.31           1.824         0.00063          0.0084               1
       0.008726           84.81           1.615       0.0006391        0.008741               1
       0.009069           74.56           1.326       0.0006485        0.009083               1
       0.009411              69           1.641        0.000658        0.009424               1
       0.009753           65.92           1.422       0.0006678        0.009766               1
         0.0101           58.17            1.31       0.0006778         0.01011               1
        0.01044           55.12           1.001        0.000688         0.01045               1
        0.01078           53.11           1.065       0.0006983         0.01079               1
        0.01112           49.15           1.019       0.0007088         0.01113               1
        0.01146           47.55           1.185       0.0007196         0.01148               1
        0.01181           44.41          0.8721       0.0007304         0.01182               1
        0.01215            39.8          0.8835       0.0007414         0.01216               1
        0.01249           38.58          0.9623       0.0007526          0.0125               1
        0.01283           37.84          0.9024       0.0007639         0.01284               1
        0.01317           35.19          0.8504       0.0007753         0.01318               1
        0.01352           32.42          0.8324       0.0007869         0.01353               1
        0.01386           30.68          0.6805       0.0007986         0.01387               1
         0.0142           29.77          0.6659       0.0008104         0.01421               1
        0.01454           28.05          0.6739       0.0008223         0.01455               1
        0.01489           26.65          0.6605       0.0008344         0.01489               1
        0.01523           25.72          0.6423       0.0008465         0.01524               1
        0.01557            25.2          0.6444       0.0008587         0.01558               1
        0.01591           23.49          0.5939       0.0008711         0.01592               1
        0.01625           24.23          0.6181       0.0008835         0.01626               1
         0.0166            22.8          0.6391        0.000896          0.0166               1
        0.01694            22.3          0.5692       0.0009086         0.01695               1
        0.01728           21.42          0.6066       0.0009212         0.01729               1
        0.01762           20.06          0.5553        0.000934         0.01763               1
        0.01796           19.49          0.5462       0.0009468         0.01797               1
        0.01831           18.75          0.5815       0.0009597         0.01831               1
        0.01865           18.25          0.5293       0.0009726         0.01866               1
        0.01899           19.27          0.5629       0.0009856           0.019               1
        0.01933           17.78          0.5103       0.0009987         0.01934               1
        0.01968           17.24          0.4901        0.001012         0.01968               1
        0.02002           17.11          0.4992        0.001025         0.02002               1
        0.02036           17.02          0.5301        0.001038         0.02037               1
         0.0207            15.7          0.4896        0.001052         0.02071               1
        0.02104           15.51          0.5163        0.001065         0.02105               1
        0.02139           14.49          0.5386        0.001078         0.02139               1
        0.02173           15.08          0.4675        0.001092         0.02173               1
        0.02207           13.87          0.5194        0.001105         0.02208               1
        0.02241           13.67          0.5379        0.001119         0.02242               1
        0.02275           14.28          0.5526        0.001132         0.02276               1
         0.0231            13.4          0.5027        0.001146          0.0231               1
        0.02344            12.1          0.4993         0.00116         0.02344               1
        0.02378           13.11          0.5115        0.001173         0.02379               1
        0.02412           11.86          0.4847        0.001187         0.02413               1
        0.02446           12.86          0.5132        0.001201         0.02447               1
        0.02481           12.07          0.5307        0.001215         0.02481               1
        0.02515           11.41           0.464        0.001229         0.02515               1
        0.02549           11.23          0.4429        0.001242         0.02549               1
        0.02583           10.55          0.4708        0.001256         0.02584               1
        0.02617           10.61          0.4377         0.00127         0.02618               1
        0.02652           10.37          0.4678        0.001284         0.02652               1
        0.02686           9.651          0.4208        0.001298         0.02686               1
         0.0272           9.866          0.4534        0.001312          0.0272               1
        0.02754            9.95          0.5164        0.001326         0.02755               1
        0.02788            9.67          0.4587         0.00134         0.02789               1
        0.02804           9.253         0.09942        0.004752         0.02841               1
        0.02823           8.812          0.4567        0.001355         0.02823               1
        0.02857           7.813          0.4213        0.001369         0.02857               1
        0.02891           8.366          0.3939        0.001383         0.02891               1
        0.02925           8.197          0.4256        0.001397         0.02926               1
        0.02959           8.319          0.4489        0.001411          0.0296               1
        0.02994           8.253          0.4581        0.001425         0.02994               1
        0.03028           7.625          0.4175         0.00144         0.03028               1
        0.03062           7.922          0.4267        0.001454         0.03062               1
        0.03096           7.945          0.4221        0.001468         0.03097               1
         0.0313           7.924          0.4223        0.001482         0.03131               1
        0.03164           7.939          0.4473        0.001497         0.03165               1
        0.03178           7.476          0.1026        0.004792         0.03211               1
        0.03199           6.742          0.4068        0.001511         0.03199               1
        0.03233           6.628          0.4172        0.001525         0.03233               1
        0.03267           6.499          0.3655         0.00154         0.03267               1
        0.03301           7.126          0.4094        0.001554         0.03302               1
        0.03335           6.207          0.3594        0.001568         0.03336               1
         0.0337           5.776           0.375        0.001583          0.0337               1
        0.03404           6.088          0.3711        0.001597         0.03404               1
        0.03438           6.413          0.3767        0.001612         0.03438               1
        0.03472            5.99          0.3797        0.001626         0.03472               1
        0.03506           5.712          0.3529        0.001641         0.03507               1
         0.0354           4.682          0.3528        0.001655         0.03541               1
        0.03552           5.844         0.07784        0.004839         0.03581               1
        0.03575           5.843          0.3923         0.00167         0.03575               1
        0.03609           4.909          0.3533        0.001684         0.03609               1
        0.03643           6.017           0.334        0.001699         0.03643               1
        0.03677           5.215          0.3667        0.001713         0.03678               1
        0.03711           5.116          0.3799        0.001728         0.03712               1
        0.03746           4.831          0.3395        0.001742         0.03746               1
         0.0378           5.195          0.3141        0.001757          0.0378               1
        0.03814           4.948          0.4196        0.001771         0.03814               1
        0.03848           4.513          0.4117        0.001786         0.03848               1
        0.03882           5.271           0.454          0.0018         0.03883               1
        0.03916           4.675           0.424        0.001815         0.03917               1
        0.03925           4.569         0.05729        0.004892         0.03951               1
        0.03951           3.761          0.4147         0.00183         0.03951               1
        0.03985           3.862          0.5577        0.001844         0.03985               1
        0.04019            3.81          0.5645        0.001859         0.04019               1
        0.04298           3.623         0.04056        0.004951         0.04322               1
        0.04672           2.943         0.03148        0.005016         0.04694               1
        0.05045           2.377         0.02521        0.005085         0.05065               1
        0.05418           1.959         0.01891        0.005159         0.05437               1
         0.0579           1.665         0.01532        0.005237         0.05808               1
        0.06163           1.449         0.01241        0.005319          0.0618               1
        0.06536           1.285        0.009701        0.005405         0.06551               1
        0.06908           1.147        0.008836        0.005495         0.06923               1
         0.0728            1.04        0.008345        0.005588         0.07294               1
        0.07652          0.9594         0.00655        0.005685         0.07665               1
        0.08023          0.8921        0.005353        0.005784         0.08036               1
        0.08395          0.8437        0.006052        0.005887         0.08407               1
        0.08766          0.8083        0.005772        0.005992         0.08778               1
        0.09137          0.7586        0.005902          0.0061         0.09148               1
        0.09508          0.7374        0.005412         0.00621         0.09518               1
        0.09878          0.7162        0.004562        0.006322         0.09888               1
         0.1025          0.7001        0.004911        0.006437          0.1026               1
         0.1062          0.6748        0.005192        0.006554          0.1063               1
         0.1099          0.6615        0.004462        0.006672            0.11               1
         0.1136          0.6466        0.004089        0.006793          0.1137               1
         0.1173          0.6448        0.004217        0.006915          0.1173               1
         0.1209          0.6317         0.00417        0.007038           0.121               1
         0.1246          0.6293        0.004425        0.007164          0.1247               1
         0.1283          0.6231        0.003936         0.00729          0.1284               1
          0.132          0.6155        0.004441        0.007418          0.1321               1
         0.1357          0.6024        0.003816        0.007547          0.1357               1
         0.1393          0.6119        0.004154        0.007677          0.1394               1
          0.143          0.5976        0.004067        0.007808          0.1431               1
         0.1466          0.5944        0.003965        0.007941          0.1467               1
         0.1503          0.5964        0.003576        0.008074          0.1504               1
          0.154          0.5908        0.004136        0.008208           0.154               1
         0.1576          0.5998        0.003526        0.008343          0.1577               1
         0.1612          0.5883        0.003559        0.008479          0.1613               1
         0.1649           0.579        0.003596        0.008615          0.1649               1
         0.1685           0.584        0.003534        0.008752          0.1686               1
         0.1721          0.5766        0.003312         0.00889          0.1722               1
         0.1758          0.5727        0.003578        0.009029          0.1758               1
         0.1794          0.5679        0.003662        0.009167          0.1794               1
          0.183          0.5664        0.003682        0.009307          0.1831               1
         0.1866          0.5539        0.003462        0.009447          0.1867               1
         0.1902          0.5536        0.003774        0.009587          0.1903               1
         0.1938          0.5476        0.003514        0.009728          0.1939               1
         0.1974          0.5338        0.004038        0.009869          0.1975               1
          0.201          0.5261        0.003905         0.01001          0.2011               1
         0.2046          0.5161        0.003715         0.01015          0.2046               1
         0.2082          0.5112        0.003984         0.01029          0.2082               1
         0.2117          0.4964        0.003704         0.01044          0.2118               1
         0.2153          0.4849         0.00387         0.01058          0.2154               1
         0.2189           0.479         0.00408         0.01072          0.2189               1
         0.2224          0.4618        0.004035         0.01086          0.2225               1
          0.226          0.4488        0.004057         0.01101           0.226               1
         0.2295           0.452        0.004094         0.01115          0.2296               1
         0.2331           0.435        0.003935         0.01129          0.2331               1
         0.2366          0.4245        0.003835         0.01144          0.2366               1
         0.2401          0.4083        0.004029         0.01158          0.2402               1
         0.2436          0.3923        0.003977         0.01172          0.2437               1
         0.2472          0.3804         0.00402         0.01187          0.2472               1
         0.2507          0.3605        0.004199         0.01201          0.2507               1
         0.2542          0.3543        0.004166         0.01216          0.2542               1
         0.2577          0.3441        0.004015          0.0123          0.2577               1
         0.2611          0.3256        0.003763         0.01244          0.2612               1
         0.2646          0.3108        0.003957         0.01259          0.2647               1
         0.2681          0.2989        0.003711         0.01273          0.2681               1
         0.2716          0.2885         0.00372         0.01287          0.2716               1
          0.275          0.2725        0.003508         0.01302          0.2751               1
         0.2785          0.2628        0.003125         0.01316          0.2785               1
         0.2819          0.2464        0.003248         0.01331          0.2819               1
         0.2854          0.2355        0.003222         0.01345          0.2854               1
         0.2888           0.224        0.003326         0.01359          0.2888               1
         0.2922          0.2106        0.003238         0.01373          0.2922               1
         0.2956          0.1993        0.003099         0.01388          0.2957               1
          0.299          0.1889        0.002772         0.01402          0.2991               1
         0.3024          0.1784        0.003064         0.01416          0.3025               1
         0.3058          0.1642        0.003025         0.01431          0.3059               1
         0.3092          0.1526        0.002764         0.01445          0.3093               1
         0.3126          0.1491        0.002765         0.01459          0.3126               1
          0.316          0.1346         0.00244         0.01473           0.316               1
         0.3193          0.1237        0.002433         0.01487          0.3194               1
         0.3227          0.1175        0.002147         0.01502          0.3227               1
          0.326          0.1101        0.002188         0.01516          0.3261               1
         0.3294          0.1025        0.002172          0.0153          0.3294               1
         0.3327          0.0959        0.002106         0.01544          0.3327               1
          0.336         0.08831        0.001799         0.01558          0.3361               1
         0.3394         0.08449        0.001887         0.01572          0.3394               1
         0.3427         0.08047        0.001733         0.01586          0.3427               1
          0.346         0.07399        0.001814           0.016           0.346               1
         0.3493         0.07602        0.001743         0.01614          0.3493               1
