FILE CREATED: Tue, Jun 26, 2007 
NSORT-ed   Jun07149.ABS 	  +  Jun07147.ABS	  + none
normalized to   Jun07147.ABS
multiplicative factor 1-2 =   0.93425233	 multiplicative factor 2-3 =            1
The 6 columns are | Q (1/A) | I(Q) (1/cm) | std. dev. I(Q) (1/cm) | sigmaQ | meanQ | ShadowFactor|
       0.002224            3052           92.58       0.0005223        0.002283          0.9972
       0.002567            1893           53.07       0.0005246        0.002617               1
       0.002909            1270           26.66       0.0005271        0.002953               1
       0.003251           914.4           16.01       0.0005304        0.003291               1
       0.003593           693.8           10.07       0.0005342        0.003629               1
       0.003936           544.5           7.555       0.0005386        0.003968               1
       0.004278           433.5           6.513       0.0005434        0.004308               1
        0.00462           355.7           4.451       0.0005487        0.004648               1
       0.004962           305.7           4.135       0.0005544        0.004988               1
       0.005304           256.8           3.974       0.0005605        0.005329               1
       0.005647           220.6           3.458        0.000567        0.005669               1
       0.005989           196.7           2.698       0.0005738         0.00601               1
       0.006331             172           2.464       0.0005809        0.006351               1
       0.006673           159.1           2.379       0.0005884        0.006692               1
       0.007015           138.4            2.21       0.0005962        0.007034               1
       0.007358           121.4           1.962       0.0006042        0.007375               1
         0.0077             114           2.066       0.0006126        0.007717               1
       0.008042           105.3           1.641       0.0006212        0.008058               1
       0.008384           96.51           1.546         0.00063          0.0084               1
       0.008726           86.79           1.498       0.0006391        0.008741               1
       0.009069           77.57            1.37       0.0006485        0.009083               1
       0.009411           73.04            1.37        0.000658        0.009424               1
       0.009753           69.44           1.429       0.0006678        0.009766               1
         0.0101            60.7            1.34       0.0006778         0.01011               1
        0.01044           58.63           1.269        0.000688         0.01045               1
        0.01078           56.98           1.082       0.0006983         0.01079               1
        0.01112           51.35            1.17       0.0007088         0.01113               1
        0.01146           48.65            1.06       0.0007196         0.01148               1
        0.01181           46.34          0.9238       0.0007304         0.01182               1
        0.01215           43.59           0.994       0.0007414         0.01216               1
        0.01249           41.21           1.037       0.0007526          0.0125               1
        0.01283           40.01           0.923       0.0007639         0.01284               1
        0.01317           36.44          0.7344       0.0007753         0.01318               1
        0.01352            35.5          0.8468       0.0007869         0.01353               1
        0.01386           32.65          0.8131       0.0007986         0.01387               1
         0.0142           32.01          0.7845       0.0008104         0.01421               1
        0.01454           31.34          0.7335       0.0008223         0.01455               1
        0.01489            30.2           0.644       0.0008344         0.01489               1
        0.01523           29.28          0.7226       0.0008465         0.01524               1
        0.01557           28.44          0.7597       0.0008587         0.01558               1
        0.01591            26.1          0.6558       0.0008711         0.01592               1
        0.01625           26.12          0.6669       0.0008835         0.01626               1
         0.0166            24.6          0.6587        0.000896          0.0166               1
        0.01694           23.58           0.583       0.0009086         0.01695               1
        0.01728           24.08          0.6362       0.0009212         0.01729               1
        0.01762           21.44          0.6295        0.000934         0.01763               1
        0.01796           21.58          0.5627       0.0009468         0.01797               1
        0.01831           20.72          0.5666       0.0009597         0.01831               1
        0.01865           20.25          0.5674       0.0009726         0.01866               1
        0.01899           20.49          0.5684       0.0009856           0.019               1
        0.01933           19.41          0.5332       0.0009987         0.01934               1
        0.01968            18.8          0.4924        0.001012         0.01968               1
        0.02002           17.71          0.5095        0.001025         0.02002               1
        0.02036            17.8          0.5221        0.001038         0.02037               1
         0.0207           17.13          0.5627        0.001052         0.02071               1
        0.02104            16.7           0.532        0.001065         0.02105               1
        0.02139           16.61          0.5123        0.001078         0.02139               1
        0.02173           16.42          0.4983        0.001092         0.02173               1
        0.02207           15.76          0.4811        0.001105         0.02208               1
        0.02241           14.56          0.5088        0.001119         0.02242               1
        0.02275              15          0.4701        0.001132         0.02276               1
         0.0231            14.4          0.5628        0.001146          0.0231               1
        0.02344            14.3          0.5754         0.00116         0.02344               1
        0.02378           13.56          0.5161        0.001173         0.02379               1
        0.02412           14.08          0.5237        0.001187         0.02413               1
        0.02446           13.21          0.5228        0.001201         0.02447               1
        0.02481           13.16          0.4413        0.001215         0.02481               1
        0.02515           12.73          0.5399        0.001229         0.02515               1
        0.02549           12.38          0.5743        0.001242         0.02549               1
        0.02583            12.7           0.534        0.001256         0.02584               1
        0.02617           11.85          0.5148         0.00127         0.02618               1
        0.02652           11.66          0.4744        0.001284         0.02652               1
        0.02686           11.57          0.5199        0.001298         0.02686               1
         0.0272           10.23          0.4481        0.001312          0.0272               1
        0.02754           9.922           0.501        0.001326         0.02755               1
        0.02788            10.3          0.4938         0.00134         0.02789               1
        0.02804           10.26          0.1092        0.004752         0.02841               1
        0.02823           10.62          0.4948        0.001355         0.02823               1
        0.02857            9.94          0.4364        0.001369         0.02857               1
        0.02891           9.314          0.4674        0.001383         0.02891               1
        0.02925           9.623          0.4083        0.001397         0.02926               1
        0.02959           9.259          0.4294        0.001411          0.0296               1
        0.02994           8.957          0.4217        0.001425         0.02994               1
        0.03028           8.989          0.4753         0.00144         0.03028               1
        0.03062           8.659          0.4738        0.001454         0.03062               1
        0.03096           9.047          0.4308        0.001468         0.03097               1
         0.0313           8.009          0.4564        0.001482         0.03131               1
        0.03164           8.594           0.438        0.001497         0.03165               1
        0.03178           8.254          0.1182        0.004792         0.03211               1
        0.03199           7.875            0.44        0.001511         0.03199               1
        0.03233            7.45          0.3984        0.001525         0.03233               1
        0.03267           8.292          0.4265         0.00154         0.03267               1
        0.03301           7.598          0.4039        0.001554         0.03302               1
        0.03335           8.045          0.4347        0.001568         0.03336               1
         0.0337           7.311          0.4109        0.001583          0.0337               1
        0.03404           6.259          0.3569        0.001597         0.03404               1
        0.03438           6.249           0.377        0.001612         0.03438               1
        0.03472           6.175          0.3914        0.001626         0.03472               1
        0.03506           6.336           0.404        0.001641         0.03507               1
         0.0354           6.333          0.3625        0.001655         0.03541               1
        0.03552           6.415         0.08425        0.004839         0.03581               1
        0.03575           5.899          0.3736         0.00167         0.03575               1
        0.03609           6.032          0.3774        0.001684         0.03609               1
        0.03643           5.968          0.3211        0.001699         0.03643               1
        0.03677           6.093          0.3427        0.001713         0.03678               1
        0.03711           5.875           0.376        0.001728         0.03712               1
        0.03746           5.645          0.3744        0.001742         0.03746               1
         0.0378           5.027          0.3496        0.001757          0.0378               1
        0.03814           4.723          0.3456        0.001771         0.03814               1
        0.03848           5.799          0.4484        0.001786         0.03848               1
        0.03882           4.836          0.4718          0.0018         0.03883               1
        0.03916           4.987          0.4421        0.001815         0.03917               1
        0.03925           5.021          0.0623        0.004892         0.03951               1
        0.03951           5.078          0.4936         0.00183         0.03951               1
        0.03985           4.267          0.5173        0.001844         0.03985               1
        0.04019           5.671          0.6131        0.001859         0.04019               1
        0.04298           3.972           0.046        0.004951         0.04322               1
        0.04672           3.196         0.03569        0.005016         0.04694               1
        0.05045           2.582         0.02712        0.005085         0.05065               1
        0.05418           2.127         0.02042        0.005159         0.05437               1
         0.0579           1.786         0.01542        0.005237         0.05808               1
        0.06163           1.528         0.01315        0.005319          0.0618               1
        0.06536           1.332         0.01142        0.005405         0.06551               1
        0.06908           1.176        0.009387        0.005495         0.06923               1
         0.0728            1.08        0.008146        0.005588         0.07294               1
        0.07652          0.9826        0.006461        0.005685         0.07665               1
        0.08023          0.9256         0.00631        0.005784         0.08036               1
        0.08395          0.8502        0.006482        0.005887         0.08407               1
        0.08766          0.8085        0.006372        0.005992         0.08778               1
        0.09137          0.7789        0.004866          0.0061         0.09148               1
        0.09508          0.7512        0.004748         0.00621         0.09518               1
        0.09878          0.7196        0.005259        0.006322         0.09888               1
         0.1025           0.711        0.005196        0.006437          0.1026               1
         0.1062           0.682        0.005044        0.006554          0.1063               1
         0.1099          0.6701        0.004467        0.006672            0.11               1
         0.1136          0.6627        0.004886        0.006793          0.1137               1
         0.1173          0.6468        0.004282        0.006915          0.1173               1
         0.1209           0.646        0.004214        0.007038           0.121               1
         0.1246          0.6295        0.004027        0.007164          0.1247               1
         0.1283          0.6187        0.003999         0.00729          0.1284               1
          0.132          0.6209        0.004626        0.007418          0.1321               1
         0.1357          0.6222        0.003952        0.007547          0.1357               1
         0.1393          0.6153        0.004304        0.007677          0.1394               1
          0.143          0.6051        0.003717        0.007808          0.1431               1
         0.1466          0.6004        0.003987        0.007941          0.1467               1
         0.1503          0.6028        0.004246        0.008074          0.1504               1
          0.154          0.5906        0.004113        0.008208           0.154               1
         0.1576          0.5935        0.003603        0.008343          0.1577               1
         0.1612          0.5859        0.003406        0.008479          0.1613               1
         0.1649          0.5769         0.00387        0.008615          0.1649               1
         0.1685          0.5776          0.0038        0.008752          0.1686               1
         0.1721           0.579        0.003782         0.00889          0.1722               1
         0.1758          0.5758         0.00379        0.009029          0.1758               1
         0.1794           0.572         0.00388        0.009167          0.1794               1
          0.183          0.5675        0.003474        0.009307          0.1831               1
         0.1866          0.5655        0.003644        0.009447          0.1867               1
         0.1902          0.5542         0.00344        0.009587          0.1903               1
         0.1938          0.5485        0.003463        0.009728          0.1939               1
         0.1974          0.5415        0.003565        0.009869          0.1975               1
          0.201          0.5286         0.00386         0.01001          0.2011               1
         0.2046          0.5151        0.003649         0.01015          0.2046               1
         0.2082          0.5066         0.00407         0.01029          0.2082               1
         0.2117          0.4999        0.003974         0.01044          0.2118               1
         0.2153          0.4857        0.004207         0.01058          0.2154               1
         0.2189          0.4754        0.003968         0.01072          0.2189               1
         0.2224          0.4631        0.004123         0.01086          0.2225               1
          0.226          0.4603        0.004492         0.01101           0.226               1
         0.2295          0.4463        0.004168         0.01115          0.2296               1
         0.2331          0.4352        0.003936         0.01129          0.2331               1
         0.2366          0.4258        0.004201         0.01144          0.2366               1
         0.2401          0.4043        0.004208         0.01158          0.2402               1
         0.2436          0.4018        0.003929         0.01172          0.2437               1
         0.2472          0.3773        0.004291         0.01187          0.2472               1
         0.2507          0.3759        0.004334         0.01201          0.2507               1
         0.2542          0.3605        0.003662         0.01216          0.2542               1
         0.2577          0.3419         0.00355          0.0123          0.2577               1
         0.2611           0.327        0.003671         0.01244          0.2612               1
         0.2646          0.3126        0.003707         0.01259          0.2647               1
         0.2681          0.2977          0.0042         0.01273          0.2681               1
         0.2716          0.2942        0.003559         0.01287          0.2716               1
          0.275          0.2754        0.003662         0.01302          0.2751               1
         0.2785          0.2668        0.003555         0.01316          0.2785               1
         0.2819          0.2462        0.003369         0.01331          0.2819               1
         0.2854          0.2369        0.003288         0.01345          0.2854               1
         0.2888          0.2236        0.003385         0.01359          0.2888               1
         0.2922          0.2081        0.003292         0.01373          0.2922               1
         0.2956          0.1992        0.002737         0.01388          0.2957               1
          0.299          0.1903        0.002493         0.01402          0.2991               1
         0.3024          0.1764        0.002694         0.01416          0.3025               1
         0.3058          0.1635        0.002785         0.01431          0.3059               1
         0.3092          0.1543        0.002594         0.01445          0.3093               1
         0.3126          0.1442        0.002426         0.01459          0.3126               1
          0.316          0.1349        0.002482         0.01473           0.316               1
         0.3193          0.1253        0.002354         0.01487          0.3194               1
         0.3227          0.1174        0.002068         0.01502          0.3227               1
          0.326          0.1084        0.002376         0.01516          0.3261               1
         0.3294          0.1005        0.002327          0.0153          0.3294               1
         0.3327          0.1001        0.001849         0.01544          0.3327               1
          0.336         0.09166         0.00187         0.01558          0.3361               1
         0.3394         0.08566        0.001887         0.01572          0.3394               1
         0.3427         0.08129        0.001854         0.01586          0.3427               1
          0.346         0.07661        0.001848           0.016           0.346               1
         0.3493         0.07614        0.001771         0.01614          0.3493               1
